"Time (s)","X (hPa)"
-5.336392084E-1,1.020197525E3
4.958827916E-1,1.020189667E3
1.525340792E0,1.020181808E3
2.554801792E0,1.020174484E3
3.584264792E0,1.020169907E3
3.780988792E0,1.020167847E3
4.843682792E0,1.020162354E3
5.906315792E0,1.020160904E3
6.968969792E0,1.020158691E3
8.031681792E0,1.020156021E3
9.094322792E0,1.020154495E3
1.015695779E1,1.020153961E3
1.121967479E1,1.020152588E3
1.228232979E1,1.020151443E3
1.334499879E1,1.020150070E3
1.440768779E1,1.020146561E3
1.547032079E1,1.020145950E3
1.653300379E1,1.020145416E3
1.759569679E1,1.020145035E3
1.865838079E1,1.020145035E3
1.972100179E1,1.020144806E3
2.078364179E1,1.020143814E3
2.184634179E1,1.020141449E3
2.290899179E1,1.020138702E3
2.397170379E1,1.020136414E3
2.503440779E1,1.020132370E3
2.609702979E1,1.020130920E3
2.715966079E1,1.020128250E3
2.822230779E1,1.020123978E3
2.928496479E1,1.020122299E3
3.034763079E1,1.020117722E3
3.141027879E1,1.020115738E3
3.247287479E1,1.020113068E3
3.353546379E1,1.020110703E3
3.459802579E1,1.020104370E3
3.566065879E1,1.020099792E3
3.672328379E1,1.020093689E3
3.778592079E1,1.020089569E3
3.884855979E1,1.020083618E3
3.991122779E1,1.020079803E3
4.097386179E1,1.020074081E3
4.203656979E1,1.020069122E3
4.309931979E1,1.020062103E3
4.416201679E1,1.020055618E3
4.522473579E1,1.020050049E3
4.628743379E1,1.020045624E3
4.735014179E1,1.020039368E3
4.841285479E1,1.020033417E3
4.947556979E1,1.020028381E3
5.053827879E1,1.020023346E3
5.160104279E1,1.020017319E3
5.266379779E1,1.020014343E3
5.372657379E1,1.020008469E3
5.478936879E1,1.020003433E3
5.585212779E1,1.019997711E3
5.691484079E1,1.019992065E3
5.797756979E1,1.019985428E3
5.904025279E1,1.019979553E3
6.010289979E1,1.019973450E3
6.116552179E1,1.019968033E3
6.222816879E1,1.019960251E3
6.329083879E1,1.019953232E3
6.435358079E1,1.019947586E3
6.541622779E1,1.019942780E3
6.647886879E1,1.019937897E3
6.754151179E1,1.019933319E3
6.860422479E1,1.019928207E3
6.966691279E1,1.019921722E3
7.072958279E1,1.019916916E3
7.179228479E1,1.019910049E3
7.285499179E1,1.019905701E3
7.391772979E1,1.019902115E3
7.498050179E1,1.019899979E3
7.604322879E1,1.019894714E3
7.710598879E1,1.019889526E3
7.816871679E1,1.019883804E3
7.923139679E1,1.019878006E3
8.029408679E1,1.019874496E3
8.135677579E1,1.019871368E3
8.241946879E1,1.019869843E3
8.348213679E1,1.019869308E3
8.454479079E1,1.019868240E3
8.560745479E1,1.019868240E3
8.667011079E1,1.019868393E3
8.773275879E1,1.019870758E3
8.879547079E1,1.019871140E3
8.985816079E1,1.019873962E3
9.092083779E1,1.019876709E3
9.198354379E1,1.019877014E3
9.304622179E1,1.019877014E3
9.410889079E1,1.019878159E3
9.517155379E1,1.019878159E3
9.623421779E1,1.019878540E3
9.729688279E1,1.019878540E3
9.835957679E1,1.019880447E3
9.942228179E1,1.019882736E3
1.004849578E2,1.019884491E3
1.015475878E2,1.019884491E3
1.026102648E2,1.019884033E3
1.036729208E2,1.019883194E3
1.047355888E2,1.019882278E3
1.057981918E2,1.019882278E3
1.068608068E2,1.019882736E3
1.079233868E2,1.019882736E3
1.089859548E2,1.019879532E3
1.100485258E2,1.019877243E3
1.111110818E2,1.019876404E3
1.121736538E2,1.019876404E3
1.132362528E2,1.019878082E3
1.142988248E2,1.019883575E3
1.153613908E2,1.019886932E3
1.164239448E2,1.019888458E3
1.174865808E2,1.019888916E3
1.185492118E2,1.019888916E3
1.196118308E2,1.019889297E3
1.206744058E2,1.019889526E3
1.217370328E2,1.019891129E3
1.227996588E2,1.019893875E3
1.238622858E2,1.019894791E3
1.249249158E2,1.019896393E3
1.259875258E2,1.019896622E3
1.270501478E2,1.019898071E3
1.281127018E2,1.019899368E3
1.291752968E2,1.019900284E3
1.302379048E2,1.019904480E3
1.313005418E2,1.019907150E3
1.323631988E2,1.019912415E3
1.334257958E2,1.019915619E3
1.344883368E2,1.019916687E3
1.355509078E2,1.019919205E3
1.366134668E2,1.019921722E3
1.376760438E2,1.019921722E3
1.387386278E2,1.019920578E3
1.398011838E2,1.019920578E3
1.408637678E2,1.019920578E3
1.419263408E2,1.019918365E3
1.429889168E2,1.019916458E3
1.440514878E2,1.019914551E3
1.451140428E2,1.019914551E3
1.461765838E2,1.019912262E3
1.472392038E2,1.019912033E3
1.483018398E2,1.019912033E3
1.493644388E2,1.019913025E3
1.504270138E2,1.019913025E3
1.514896148E2,1.019914322E3
1.525522408E2,1.019914322E3
1.536148918E2,1.019916000E3
1.546774908E2,1.019917526E3
1.557401128E2,1.019917679E3
1.568027058E2,1.019918289E3
1.578652928E2,1.019919968E3
1.589278838E2,1.019919968E3
1.599904848E2,1.019919968E3
1.610531308E2,1.019921265E3
1.621158158E2,1.019923019E3
1.631787508E2,1.019923630E3
1.642416538E2,1.019925461E3
1.653045598E2,1.019925461E3
1.663674838E2,1.019924240E3
1.674304048E2,1.019924011E3
1.684932948E2,1.019922714E3
1.695561848E2,1.019922714E3
1.706191218E2,1.019923782E3
1.716820408E2,1.019926147E3
1.727449468E2,1.019926300E3
1.738078458E2,1.019926147E3
1.748707278E2,1.019924393E3
1.759336768E2,1.019923553E3
1.769965878E2,1.019921036E3
1.780595228E2,1.019920425E3
1.791224228E2,1.019921036E3
1.801853728E2,1.019919815E3
1.812482708E2,1.019922104E3
1.823111928E2,1.019922104E3
1.833741488E2,1.019922791E3
1.844370648E2,1.019922791E3
1.854999408E2,1.019922943E3
1.865627928E2,1.019922943E3
1.876256618E2,1.019922943E3
1.886885308E2,1.019922943E3
1.897513938E2,1.019923630E3
1.908142278E2,1.019923630E3
1.918770318E2,1.019923630E3
1.929398878E2,1.019925232E3
1.940027568E2,1.019925232E3
1.950655888E2,1.019923401E3
1.961284398E2,1.019921417E3
1.971912918E2,1.019919739E3
1.982541718E2,1.019916000E3
1.993170228E2,1.019913483E3
2.003799218E2,1.019912186E3
2.014428608E2,1.019910126E3
2.025057658E2,1.019909058E3
2.035687138E2,1.019907837E3
2.046316198E2,1.019905090E3
2.056945208E2,1.019900208E3
2.067574618E2,1.019897003E3
2.078203648E2,1.019894333E3
2.088832788E2,1.019893036E3
2.099461628E2,1.019892197E3
2.110090668E2,1.019891739E3
2.120719928E2,1.019891586E3
2.131348898E2,1.019890366E3
2.141977428E2,1.019886932E3
2.152606868E2,1.019886093E3
2.163236428E2,1.019885941E3
2.173865918E2,1.019882812E3
2.184494958E2,1.019881058E3
2.195123868E2,1.019880066E3
2.205753588E2,1.019878311E3
2.216383278E2,1.019878311E3
2.227012808E2,1.019878998E3
2.237642398E2,1.019878998E3
2.248271518E2,1.019878998E3
2.258900628E2,1.019877090E3
2.269529398E2,1.019874573E3
2.280158688E2,1.019872589E3
2.290787818E2,1.019870300E3
2.301416388E2,1.019870300E3
2.312044908E2,1.019870377E3
2.322673678E2,1.019870377E3
2.333302368E2,1.019869919E3
2.343930768E2,1.019869080E3
2.354559208E2,1.019867783E3
2.365187428E2,1.019865952E3
2.375815518E2,1.019861603E3
2.386443768E2,1.019858170E3
2.397072408E2,1.019856873E3
2.407701498E2,1.019853516E3
2.418330568E2,1.019850693E3
2.428959668E2,1.019849548E3
2.439588398E2,1.019849701E3
2.450216838E2,1.019849701E3
2.460844958E2,1.019850311E3
2.471473578E2,1.019850311E3
2.482102488E2,1.019848557E3
2.492731268E2,1.019846115E3
2.503360128E2,1.019842529E3
2.513988968E2,1.019837875E3
2.524617898E2,1.019834595E3
2.535247008E2,1.019832611E3
2.545876298E2,1.019832230E3
2.556505288E2,1.019831390E3
2.567134158E2,1.019832077E3
2.577763008E2,1.019832077E3
2.588391728E2,1.019832687E3
2.599021038E2,1.019832687E3
2.609650938E2,1.019833069E3
2.620280818E2,1.019833069E3
2.630910318E2,1.019833908E3
2.641539848E2,1.019833908E3
2.652168498E2,1.019833527E3
2.662797378E2,1.019833450E3
2.673426238E2,1.019831772E3
2.684054738E2,1.019831772E3
2.694683118E2,1.019831619E3
2.705311518E2,1.019829712E3
2.715940048E2,1.019829712E3
2.726568418E2,1.019829712E3
2.737196748E2,1.019828796E3
2.747824608E2,1.019826813E3
2.758453048E2,1.019825058E3
2.769081728E2,1.019822998E3
2.779710298E2,1.019819641E3
2.790338758E2,1.019817505E3
2.800967558E2,1.019816284E3
2.811596418E2,1.019815140E3
2.822225408E2,1.019815140E3
2.832853868E2,1.019815445E3
2.843482328E2,1.019815445E3
2.854110888E2,1.019814529E3
2.864739478E2,1.019814529E3
2.875368018E2,1.019814377E3
2.885997248E2,1.019813690E3
2.896626438E2,1.019813538E3
2.907255538E2,1.019813461E3
2.917884458E2,1.019813461E3
2.928513138E2,1.019813919E3
2.939141768E2,1.019813919E3
2.949770688E2,1.019813919E3
2.960399418E2,1.019814072E3
2.971028458E2,1.019814072E3
2.981657718E2,1.019814072E3
2.992286748E2,1.019816818E3
3.002916138E2,1.019818573E3
3.013545428E2,1.019820709E3
3.024174128E2,1.019823608E3
3.034802678E2,1.019825287E3
3.045431598E2,1.019825287E3
3.056060778E2,1.019825287E3
3.066690088E2,1.019826736E3
3.077319268E2,1.019826813E3
3.087948348E2,1.019828415E3
3.098576838E2,1.019829636E3
3.109205498E2,1.019831238E3
3.119833478E2,1.019831543E3
3.130461818E2,1.019832611E3
3.141090058E2,1.019834366E3
3.151718628E2,1.019835968E3
3.162347098E2,1.019836807E3
3.172975938E2,1.019838104E3
3.183604208E2,1.019838181E3
3.194232548E2,1.019838486E3
3.204860918E2,1.019838943E3
3.215489248E2,1.019839859E3
3.226117848E2,1.019842529E3
3.236746248E2,1.019845428E3
3.247374408E2,1.019847565E3
3.258003118E2,1.019847565E3
3.268631748E2,1.019850159E3
3.279260628E2,1.019850998E3
3.289888488E2,1.019850998E3
3.300516638E2,1.019850693E3
3.311145078E2,1.019848709E3
3.321773458E2,1.019846268E3
3.332402018E2,1.019846268E3
3.343030408E2,1.019845886E3
3.353658848E2,1.019847107E3
3.364287248E2,1.019848175E3
3.374915838E2,1.019849243E3
3.385543928E2,1.019849854E3
3.396172708E2,1.019849854E3
3.406802098E2,1.019849854E3
3.417430758E2,1.019851608E3
3.428058798E2,1.019853287E3
3.438686828E2,1.019854507E3
3.449315048E2,1.019857101E3
3.459943158E2,1.019860382E3
3.470571668E2,1.019862747E3
3.481199748E2,1.019865723E3
3.491828048E2,1.019868240E3
3.502456898E2,1.019872284E3
3.513085338E2,1.019875336E3
3.523714008E2,1.019877243E3
3.534342738E2,1.019879532E3
3.544971368E2,1.019880600E3
3.555600088E2,1.019881973E3
3.566228498E2,1.019881973E3
3.576857148E2,1.019882812E3
3.587485378E2,1.019883347E3
3.598113528E2,1.019883347E3
3.608741668E2,1.019883575E3
3.619370068E2,1.019885025E3
3.629998068E2,1.019886169E3
3.640625898E2,1.019887390E3
3.651253768E2,1.019888229E3
3.661881748E2,1.019889450E3
3.672510008E2,1.019892273E3
3.683138308E2,1.019893036E3
3.693766568E2,1.019894791E3
3.704394758E2,1.019895859E3
3.715023078E2,1.019895859E3
3.725651408E2,1.019895325E3
3.736279458E2,1.019895325E3
3.746908108E2,1.019896851E3
3.757536958E2,1.019899368E3
3.768165648E2,1.019902573E3
3.778794198E2,1.019905090E3
3.789421928E2,1.019906921E3
3.800049578E2,1.019908829E3
3.810677878E2,1.019912262E3
3.821306908E2,1.019912491E3
3.831935558E2,1.019913788E3
3.842564348E2,1.019915161E3
3.853193158E2,1.019915161E3
3.863821518E2,1.019914169E3
3.874449768E2,1.019912491E3
3.885078268E2,1.019911804E3
3.895706028E2,1.019911423E3
3.906334158E2,1.019911423E3
3.916962578E2,1.019912033E3
3.927590878E2,1.019913483E3
3.938218768E2,1.019913483E3
3.948846648E2,1.019912491E3
3.959475178E2,1.019912491E3
3.970103398E2,1.019914093E3
3.980731908E2,1.019914093E3
3.991360238E2,1.019916000E3
4.001988548E2,1.019918365E3
4.012616708E2,1.019923401E3
4.023244878E2,1.019926529E3
4.033873348E2,1.019927979E3
4.044500708E2,1.019927979E3
4.055128298E2,1.019927750E3
4.065755978E2,1.019927750E3
4.076384058E2,1.019928207E3
4.087012448E2,1.019929962E3
4.097641308E2,1.019932861E3
4.108270118E2,1.019936905E3
4.118899158E2,1.019938965E3
4.129528308E2,1.019939346E3
4.140157038E2,1.019940414E3
4.150785838E2,1.019941330E3
4.161414468E2,1.019943161E3
4.172042788E2,1.019944839E3
4.182671498E2,1.019947205E3
4.193300048E2,1.019947357E3
4.203929258E2,1.019950485E3
4.214557938E2,1.019951324E3
4.225186528E2,1.019951782E3
4.235815238E2,1.019954300E3
4.246443368E2,1.019958344E3
4.257071388E2,1.019958801E3
4.267699648E2,1.019960861E3
4.278328328E2,1.019964676E3
4.288956868E2,1.019966125E3
4.299585548E2,1.019966125E3
4.310214058E2,1.019966583E3
4.320842908E2,1.019966888E3
4.331471378E2,1.019968185E3
4.342099898E2,1.019968185E3
4.352728198E2,1.019968414E3
4.363356458E2,1.019968033E3
4.373985018E2,1.019966125E3
4.384613478E2,1.019961243E3
4.395241808E2,1.019959564E3
4.405869878E2,1.019958115E3
4.416497858E2,1.019958115E3
4.427126048E2,1.019958954E3
4.437754928E2,1.019960785E3
4.448383498E2,1.019962311E3
4.459012728E2,1.019965897E3
4.469641368E2,1.019969330E3
4.480269898E2,1.019972610E3
4.490898058E2,1.019976044E3
4.501525838E2,1.019982147E3
4.512154038E2,1.019983978E3
4.522782068E2,1.019988251E3
4.533410058E2,1.019990997E3
4.544038058E2,1.019994125E3
4.554666408E2,1.019998779E3
4.565294388E2,1.020002975E3
4.575922478E2,1.020007553E3
4.586550908E2,1.020012894E3
4.597179598E2,1.020017853E3
4.607807718E2,1.020018158E3
4.618435808E2,1.020020905E3
4.629063638E2,1.020021057E3
4.639691728E2,1.020022507E3
4.650320338E2,1.020025940E3
4.660948848E2,1.020029068E3
4.671577308E2,1.020033875E3
4.682205848E2,1.020039139E3
4.692834028E2,1.020044174E3
4.703462288E2,1.020047836E3
4.714090028E2,1.020052490E3
4.724717838E2,1.020053635E3
4.735345938E2,1.020056229E3
4.745973868E2,1.020058899E3
4.756601848E2,1.020059814E3
4.767229928E2,1.020060577E3
4.777858028E2,1.020063629E3
4.788485878E2,1.020066071E3
4.799114478E2,1.020067749E3
4.809742528E2,1.020070038E3
4.820370928E2,1.020076370E3
4.830998998E2,1.020078506E3
4.841626868E2,1.020079956E3
4.852254948E2,1.020080185E3
4.862882998E2,1.020080414E3
4.873511528E2,1.020080795E3
4.884140118E2,1.020083542E3
4.894768688E2,1.020084381E3
4.905396828E2,1.020089951E3
4.916024968E2,1.020095139E3
4.926652828E2,1.020099106E3
4.937281158E2,1.020103149E3
4.947909008E2,1.020107727E3
4.958536728E2,1.020109940E3
4.969164448E2,1.020112228E3
4.979792268E2,1.020115509E3
4.990419348E2,1.020119629E3
5.001047078E2,1.020121994E3
5.011675128E2,1.020124893E3
5.022303158E2,1.020126495E3
5.032931068E2,1.020129013E3
5.043558938E2,1.020129700E3
5.054186988E2,1.020130692E3
5.064815518E2,1.020131912E3
5.075444418E2,1.020133667E3
5.086072678E2,1.020134964E3
5.096700808E2,1.020137634E3
5.107328948E2,1.020138397E3
5.117956978E2,1.020138474E3
5.128585118E2,1.020139008E3
5.139213188E2,1.020140228E3
5.149841238E2,1.020141296E3
5.160469128E2,1.020141296E3
5.171097078E2,1.020143814E3
5.181725328E2,1.020144272E3
5.192353058E2,1.020145035E3
5.202981238E2,1.020145111E3
5.213609048E2,1.020145111E3
5.224237018E2,1.020145721E3
5.234865158E2,1.020146332E3
5.245493078E2,1.020148010E3
5.256121258E2,1.020149536E3
5.266749728E2,1.020152435E3
5.277378208E2,1.020154572E3
5.288006738E2,1.020157928E3
5.298635008E2,1.020158768E3
5.309263178E2,1.020158768E3
5.319891408E2,1.020155945E3
5.330519828E2,1.020154495E3
5.341148218E2,1.020150909E3
5.351777068E2,1.020147400E3
5.362405898E2,1.020147400E3
5.373035228E2,1.020146561E3
5.383663988E2,1.020145721E3
5.394292168E2,1.020145721E3
5.404920748E2,1.020145645E3
5.415549058E2,1.020144653E3
5.426176988E2,1.020144653E3
5.436805188E2,1.020145416E3
5.447433388E2,1.020145721E3
5.458061518E2,1.020145721E3
5.468689378E2,1.020146103E3
5.479317098E2,1.020146103E3
5.489944768E2,1.020143967E3
5.500572088E2,1.020141449E3
5.511199468E2,1.020139618E3
5.521827288E2,1.020136414E3
5.532455398E2,1.020135956E3
5.543083708E2,1.020135956E3
5.553711868E2,1.020131226E3
5.564339578E2,1.020127335E3
5.574967268E2,1.020127335E3
5.585595058E2,1.020125961E3
5.596223068E2,1.020122528E3
5.606851138E2,1.020122528E3
5.617479728E2,1.020122757E3
5.628108188E2,1.020123749E3
5.638736338E2,1.020123215E3
5.649364148E2,1.020123215E3
5.659992558E2,1.020121536E3
5.670620628E2,1.020119324E3
5.681248668E2,1.020116653E3
5.691876368E2,1.020111160E3
5.702504668E2,1.020108490E3
5.713133078E2,1.020105515E3
5.723761428E2,1.020103760E3
5.734389568E2,1.020102158E3
5.745017558E2,1.020101013E3
5.755645348E2,1.020099945E3
5.766273388E2,1.020099564E3
5.776901278E2,1.020097046E3
5.787529148E2,1.020094147E3
5.798157508E2,1.020093536E3
5.808785748E2,1.020089645E3
5.819414178E2,1.020087357E3
5.830042458E2,1.020083618E3
5.840670588E2,1.020080414E3
5.851298308E2,1.020073700E3
5.861925788E2,1.020071411E3
5.872553828E2,1.020067215E3
5.883182088E2,1.020064697E3
5.893810888E2,1.020064697E3
5.904439308E2,1.020067978E3
5.915067508E2,1.020070496E3
5.925696038E2,1.020072479E3
5.936324948E2,1.020079193E3
5.946953758E2,1.020081100E3
5.957582388E2,1.020082092E3
5.968210428E2,1.020083618E3