"Time (s)","Magnetic field x (µT)","Magnetic field y (µT)","Magnetic field z (µT)"
5.279484400E-2,3.435519791E1,1.110200024E1,-3.021939850E1
7.279484400E-2,3.378179932E1,1.127279949E1,-3.053660011E1
9.279484400E-2,3.315959930E1,1.132159996E1,-3.103679848E1
1.127948440E-1,3.204940033E1,1.157779980E1,-3.190299988E1
1.327948440E-1,3.070739937E1,1.184619999E1,-3.278139877E1
1.527948440E-1,2.914579964E1,1.215119934E1,-3.391600037E1
1.727948440E-1,2.753540039E1,1.261479950E1,-3.494079971E1
1.927948440E-1,2.619339943E1,1.301739979E1,-3.574599838E1
2.127948440E-1,2.496119881E1,1.349319935E1,-3.644139862E1
2.327948440E-1,2.378999901E1,1.405439949E1,-3.686840057E1
2.527948440E-1,2.233819962E1,1.478639984E1,-3.733200073E1
2.727948440E-1,2.019099998E1,1.577460003E1,-3.785659790E1
2.927948440E-1,1.765340042E1,1.694579887E1,-3.851539993E1
3.127948440E-1,1.477419949E1,1.817799950E1,-3.917419815E1
3.327948440E-1,1.222439957E1,1.927599907E1,-3.961339951E1
3.527948440E-1,1.001620007E1,2.041059875E1,-3.974760056E1
3.727948440E-1,8.161799431E0,2.142319870E1,-3.963779831E1
3.927948440E-1,6.941799641E0,2.252120018E1,-3.932059860E1
4.127948440E-1,6.051199913E0,2.363139915E1,-3.883259964E1
4.327948440E-1,5.697400093E0,2.450979996E1,-3.844219971E1
4.527948440E-1,5.721799850E0,2.515639877E1,-3.799079895E1
4.727948440E-1,5.855999947E0,2.542479897E1,-3.767359924E1
4.927948440E-1,5.916999817E0,2.548579979E1,-3.762479782E1
5.127948440E-1,6.063399792E0,2.538819885E1,-3.769799805E1
5.327948440E-1,6.136600018E0,2.524180031E1,-3.784439850E1
5.527948440E-1,6.282999992E0,2.516860008E1,-3.814939880E1
5.727948440E-1,6.722199917E0,2.496119881E1,-3.821039963E1
5.927948440E-1,7.149199963E0,2.460739899E1,-3.839339828E1
6.127948440E-1,7.515199661E0,2.403400040E1,-3.872279739E1
6.327948440E-1,7.990999699E0,2.313119888E1,-3.897900009E1
6.527948440E-1,8.381400108E0,2.211859894E1,-3.958900070E1
6.727948440E-1,8.771800041E0,2.106939888E1,-4.002819824E1
6.927948440E-1,9.198800087E0,2.016659927E1,-4.044300079E1
7.127948440E-1,9.369600296E0,1.966639900E1,-4.069919968E1
7.327948440E-1,9.357399940E0,1.953219986E1,-4.066259766E1
7.527948440E-1,9.271999359E0,1.976399994E1,-4.057719803E1
7.727948440E-1,9.076799393E0,2.016659927E1,-4.030879974E1
7.927948440E-1,8.967000008E0,2.047159958E1,-4.010139847E1
8.127948440E-1,8.979199409E0,2.075219917E1,-3.985739899E1
8.327948440E-1,8.832799911E0,2.093519974E1,-3.975979996E1
8.527948440E-1,8.820599556E0,2.114259911E1,-3.956459808E1
8.727948440E-1,8.735199928E0,2.138660049E1,-3.940599823E1
8.927948440E-1,8.491199493E0,2.175259972E1,-3.940599823E1
9.127948440E-1,8.271599770E0,2.204539871E1,-3.922299957E1
9.327948440E-1,7.807999611E0,2.210639954E1,-3.930839920E1
9.527948440E-1,7.417599678E0,2.199659920E1,-3.941819763E1
9.727948440E-1,7.027199745E0,2.155739975E1,-3.961339951E1
9.927948440E-1,6.673399925E0,2.100839996E1,-3.993059921E1
1.012794844E0,6.343999863E0,2.049600029E1,-4.032099915E1
1.032794844E0,6.136600018E0,2.006900024E1,-4.065039825E1
1.052794844E0,5.941400051E0,1.982499886E1,-4.080899811E1
1.072794844E0,5.880399704E0,1.970299911E1,-4.099200058E1
1.092794844E0,5.929199696E0,1.975180054E1,-4.095539856E1
1.112794844E0,5.916999817E0,1.997139931E1,-4.084560013E1
1.132794844E0,5.977999687E0,2.022760010E1,-4.076020050E1
1.152794844E0,6.197599888E0,2.069120026E1,-4.054059982E1
1.172794844E0,6.478199959E0,2.106939888E1,-4.027219772E1
1.192794844E0,6.880799770E0,2.149639893E1,-3.990620041E1
1.212794844E0,7.441999912E0,2.202099991E1,-3.945479965E1
1.232794844E0,8.027600288E0,2.235039902E1,-3.899119949E1
1.252794844E0,8.759599686E0,2.282620049E1,-3.856419754E1
1.272794844E0,9.564800262E0,2.305799866E1,-3.829579926E1
1.292794844E0,1.026019955E1,2.307019997E1,-3.813719940E1
1.312794844E0,1.069939995E1,2.296039963E1,-3.806399918E1
1.332794844E0,1.093120003E1,2.274079895E1,-3.816159821E1
1.352794844E0,1.113859940E1,2.243579865E1,-3.833239746E1
1.372794844E0,1.133379936E1,2.199659920E1,-3.847879791E1
1.392794844E0,1.154119968E1,2.150860023E1,-3.883259964E1
1.412794844E0,1.187059975E1,2.081320000E1,-3.908879852E1
1.432794844E0,1.199259949E1,2.010560036E1,-3.939379883E1
1.452794844E0,1.195599937E1,1.947119904E1,-3.977199936E1
1.472794844E0,1.194379997E1,1.895879936E1,-3.990620041E1
1.492794844E0,1.185839939E1,1.860499954E1,-4.015019989E1
1.512794844E0,1.176079941E1,1.839760017E1,-4.018679810E1
1.532794844E0,1.190719986E1,1.832439995E1,-4.025999832E1
1.552794844E0,1.198040009E1,1.829999924E1,-4.023559952E1
1.572794844E0,1.209019947E1,1.826339912E1,-4.015019989E1
1.592794844E0,1.212679958E1,1.822679901E1,-4.011359787E1
1.612794844E0,1.215119934E1,1.817799950E1,-4.008919907E1
1.632794844E0,1.228539944E1,1.806819916E1,-4.021120071E1
1.652794844E0,1.252939987E1,1.778759956E1,-4.024779892E1
1.672794844E0,1.273680019E1,1.744599915E1,-4.034539795E1
1.692794844E0,1.274899960E1,1.689699936E1,-4.046739960E1
1.712794844E0,1.267579937E1,1.628699875E1,-4.065039825E1
1.732794844E0,1.249279976E1,1.564039993E1,-4.096759796E1
1.752794844E0,1.233419991E1,1.493279934E1,-4.130920029E1
1.772794844E0,1.229759979E1,1.416419983E1,-4.160199738E1
1.792794844E0,1.232199955E1,1.327359962E1,-4.188259888E1
1.812794844E0,1.239519978E1,1.235859966E1,-4.209000015E1
1.832794844E0,1.246840000E1,1.150459957E1,-4.224860001E1
1.852794844E0,1.233419991E1,1.071159935E1,-4.243159866E1
1.872794844E0,1.202919960E1,1.000399971E1,-4.268779755E1
1.892794844E0,1.162659931E1,9.454999924E0,-4.295619965E1
1.912794844E0,1.140699959E1,8.747400284E0,-4.323679733E1
1.932794844E0,1.143139935E1,7.942199707E0,-4.340760040E1
1.952794844E0,1.183399963E1,6.929599762E0,-4.360279846E1
1.972794844E0,1.243179989E1,5.843800068E0,-4.367599869E1
1.992794844E0,1.298079967E1,4.733600140E0,-4.363940048E1
2.012794844E0,1.352979946E1,3.806399822E0,-4.357839966E1
2.032794844E0,1.392019939E1,3.098799944E0,-4.337099838E1
2.052794844E0,1.426179981E1,2.549799919E0,-4.332220078E1
2.072794844E0,1.457899952E1,2.244799852E0,-4.334659958E1
2.092794844E0,1.478639984E1,2.134999990E0,-4.334659958E1
2.112794844E0,1.505480003E1,2.220399857E0,-4.337099838E1
2.132794844E0,1.538420010E1,2.403399944E0,-4.328559875E1
2.152794844E0,1.604299927E1,2.781599998E0,-4.295619965E1
2.172794844E0,1.688479996E1,3.342799902E0,-4.260239792E1
2.192794844E0,1.788520050E1,4.001599789E0,-4.205339813E1
2.212794844E0,1.893440056E1,4.745800018E0,-4.145560074E1
2.232794844E0,1.967860031E1,5.709599972E0,-4.106520081E1
2.252794844E0,2.016659927E1,6.819799900E0,-4.055279922E1
2.272794844E0,2.053260040E1,8.442399979E0,-4.012580109E1
2.292794844E0,2.080099869E1,1.069939995E1,-3.935720062E1
2.312794844E0,2.142319870E1,1.377379990E1,-3.784439850E1
2.332794844E0,2.246019936E1,1.777540016E1,-3.542879868E1
2.352794844E0,2.372900009E1,2.198439980E1,-3.202499771E1
2.372794844E0,2.518079948E1,2.596159935E1,-2.810879898E1
2.392794844E0,2.659599876E1,2.888959885E1,-2.461960030E1
2.412794844E0,2.784039879E1,3.039019966E1,-2.205760002E1
2.432794844E0,2.874320030E1,3.080500031E1,-2.078879929E1
2.452794844E0,2.907259941E1,3.030480003E1,-2.113039970E1
2.472794844E0,2.852359962E1,2.969479942E1,-2.243579865E1
2.492794844E0,2.686439896E1,2.927999878E1,-2.442440033E1
2.512794844E0,2.455859947E1,2.925559998E1,-2.644960022E1
2.532794844E0,2.193560028E1,2.968260002E1,-2.797459984E1
2.552794844E0,1.941020012E1,3.010960007E1,-2.918239975E1
2.572794844E0,1.737279892E1,3.019499969E1,-3.023159981E1
2.592794844E0,1.571360016E1,2.988999939E1,-3.132959938E1
2.612794844E0,1.439599991E1,2.909700012E1,-3.267160034E1
2.632794844E0,1.332240009E1,2.786479950E1,-3.401359940E1
2.652794844E0,1.245619965E1,2.653499985E1,-3.522140121E1
2.672794844E0,1.165100002E1,2.511979866E1,-3.634379959E1
2.692794844E0,1.099219990E1,2.376560020E1,-3.728319931E1
2.712794844E0,1.039439964E1,2.253339958E1,-3.819820023E1
2.732794844E0,9.930799484E0,2.132559967E1,-3.902779770E1
2.752794844E0,9.503799438E0,2.012999916E1,-3.984519958E1
2.772794844E0,9.174399376E0,1.898320007E1,-4.060160065E1
2.792794844E0,8.991399765E0,1.777540016E1,-4.117499924E1
2.812794844E0,8.991399765E0,1.671399879E1,-4.155319977E1
2.832794844E0,9.125599861E0,1.571360016E1,-4.191920090E1
2.852794844E0,9.308599472E0,1.476200008E1,-4.221199799E1
2.872794844E0,9.491600037E0,1.396899986E1,-4.243159866E1
2.892794844E0,9.625800133E0,1.324919987E1,-4.273659897E1
2.912794844E0,9.662400246E0,1.246840000E1,-4.295619965E1
2.932794844E0,9.625800133E0,1.178520012E1,-4.307819748E1
2.952794844E0,9.845399857E0,1.110200024E1,-4.326119995E1
2.972794844E0,1.006499958E1,1.034560013E1,-4.338319778E1
2.992794844E0,1.057740021E1,9.686800003E0,-4.346859741E1
3.012794844E0,1.130939960E1,9.076799393E0,-4.341979980E1
3.032794844E0,1.206579971E1,8.637599945E0,-4.323679733E1
3.052794844E0,1.317599964E1,8.430199623E0,-4.305379868E1
3.072794844E0,1.466440010E1,8.588799477E0,-4.244379807E1
3.092794844E0,1.646999931E1,8.991399765E0,-4.173619843E1
3.112794844E0,1.827560043E1,9.613599777E0,-4.095539856E1
3.132794844E0,1.991040039E1,1.041879940E1,-3.993059921E1
3.152794844E0,2.124020004E1,1.116300011E1,-3.907659912E1
3.172794844E0,2.238699913E1,1.162659931E1,-3.836899948E1
3.192794844E0,2.363139915E1,1.172420025E1,-3.764920044E1
3.212794844E0,2.494899940E1,1.128499985E1,-3.707579803E1
3.232794844E0,2.621780014E1,1.050419998E1,-3.659999847E1
3.252794844E0,2.709619904E1,9.686800003E0,-3.623400116E1
3.272794844E0,2.744999886E1,8.979199409E0,-3.616080093E1
3.292794844E0,2.721819878E1,8.552199364E0,-3.636819839E1
3.312794844E0,2.663259888E1,8.466799736E0,-3.674639893E1
3.332794844E0,2.609580040E1,8.393599510E0,-3.720999908E1
3.352794844E0,2.569319916E1,8.418000221E0,-3.751499939E1
3.372794844E0,2.565659904E1,8.356999397E0,-3.757600021E1
3.392794844E0,2.574199867E1,8.234999657E0,-3.757600021E1
3.412794844E0,2.596159935E1,8.161799431E0,-3.734420013E1
3.432794844E0,2.622999954E1,8.137399673E0,-3.714899826E1
3.452794844E0,2.654719925E1,8.100799561E0,-3.689279938E1
3.472794844E0,2.688879967E1,8.039799690E0,-3.674639893E1
3.492794844E0,2.716939926E1,7.978799820E0,-3.668539810E1
3.512794844E0,2.731579971E1,7.698199749E0,-3.659999847E1
3.532794844E0,2.743779945E1,7.527400017E0,-3.672200012E1
3.552794844E0,2.740119934E1,7.319999695E0,-3.667319870E1
3.572794844E0,2.725479889E1,7.137000084E0,-3.669759750E1
3.592794844E0,2.718159866E1,7.014999866E0,-3.677079773E1
3.612794844E0,2.690099907E1,6.795399666E0,-3.681959915E1
3.632794844E0,2.669359970E1,6.539199829E0,-3.711240005E1
3.652794844E0,2.651059914E1,6.282999992E0,-3.738079834E1
3.672794844E0,2.622999954E1,5.990200043E0,-3.772240067E1
3.692794844E0,2.591279984E1,5.831599712E0,-3.801519775E1
3.712794844E0,2.554679871E1,5.807199955E0,-3.827140045E1
3.732794844E0,2.514419937E1,5.782799721E0,-3.841780090E1
3.752794844E0,2.477820015E1,5.929199696E0,-3.849100113E1
3.772794844E0,2.468059921E1,5.892600060E0,-3.845439911E1
3.792794844E0,2.474160004E1,5.660799980E0,-3.829579926E1
3.812794844E0,2.480259895E1,5.416800022E0,-3.843000031E1
3.832794844E0,2.480259895E1,5.197199821E0,-3.850320053E1
3.852794844E0,2.472939873E1,5.148399830E0,-3.866180038E1
3.872794844E0,2.457079887E1,5.343599796E0,-3.872279739E1
3.892794844E0,2.443659973E1,5.709599972E0,-3.869839859E1
3.912794844E0,2.438780022E1,6.002399921E0,-3.856419754E1
3.932794844E0,2.410719872E1,6.319600105E0,-3.858860016E1
3.952794844E0,2.372900009E1,6.526999950E0,-3.885699844E1
3.972794844E0,2.319219971E1,6.624599934E0,-3.913759995E1
3.992794844E0,2.247239876E1,6.758800030E0,-3.957679749E1
4.012794844E0,2.193560028E1,6.929599762E0,-3.978419876E1
4.032794844E0,2.160619926E1,7.234600067E0,-3.984519958E1
4.052794844E0,2.155739975E1,7.759199619E0,-3.974760056E1
4.072794844E0,2.185019875E1,8.418000221E0,-3.939379883E1
4.092794844E0,2.230159950E1,9.125599861E0,-3.899119949E1
4.112794844E0,2.275300026E1,9.833199501E0,-3.849100113E1
4.132794844E0,2.330200005E1,1.027239990E1,-3.807619858E1
4.152794844E0,2.370459938E1,1.046759987E1,-3.779560089E1
4.172794844E0,2.405839920E1,1.032119942E1,-3.775899887E1
4.192794844E0,2.433899879E1,9.942999840E0,-3.775899887E1
4.212794844E0,2.452199936E1,9.650199890E0,-3.774679947E1
4.232794844E0,2.488799858E1,9.320799828E0,-3.768579865E1
4.252794844E0,2.531499863E1,9.210999489E0,-3.736859894E1
4.272794844E0,2.581519890E1,9.186599731E0,-3.694160080E1
4.292794844E0,2.625440025E1,9.052399635E0,-3.668539810E1
4.312794844E0,2.662039948E1,8.857199669E0,-3.651459885E1
4.332794844E0,2.702299881E1,8.527799606E0,-3.642919922E1
4.352794844E0,2.737679863E1,8.161799431E0,-3.629499817E1
4.372794844E0,2.805999947E1,7.637199879E0,-3.585580063E1
4.392794844E0,2.886520004E1,7.014999866E0,-3.540439987E1
4.412794844E0,2.978019905E1,6.112199783E0,-3.483099747E1
4.432794844E0,3.082939911E1,4.953199863E0,-3.441619873E1
4.452794844E0,3.156139946E1,3.818599939E0,-3.408679962E1
4.472794844E0,3.189079857E1,2.891399860E0,-3.376959991E1
4.492794844E0,3.202499771E1,2.378999949E0,-3.368420029E1
4.512794844E0,3.200059891E1,2.281399965E0,-3.356219864E1
4.532794844E0,3.193959999E1,2.476599932E0,-3.352560043E1
4.552794844E0,3.228120041E1,2.513200045E0,-3.335480118E1
4.572794844E0,3.272039795E1,2.256999969E0,-3.292779922E1
4.592794844E0,3.323279953E1,1.488399982E0,-3.245199966E1
4.612794844E0,3.385499954E1,3.903999925E-1,-3.190299988E1
4.632794844E0,3.414780045E1,-8.905999660E-1,-3.142720032E1
4.652794844E0,3.444059753E1,-2.013000011E0,-3.126859856E1
4.672794844E0,3.463579941E1,-2.854799986E0,-3.096360016E1
4.692794844E0,3.479439926E1,-3.489199877E0,-3.081719971E1
4.712794844E0,3.511159897E1,-3.696599960E0,-3.064639854E1
4.732794844E0,3.524580002E1,-3.769799948E0,-3.031699944E1
4.752794844E0,3.530680084E1,-3.733199835E0,-3.017059898E1
4.772794844E0,3.534339905E1,-3.720999956E0,-3.004859924E1
4.792794844E0,3.527019882E1,-3.720999956E0,-3.014620018E1
4.812794844E0,3.517259979E1,-3.647799969E0,-3.043899918E1
4.832794844E0,3.506279755E1,-3.525799990E0,-3.067079926E1
4.852794844E0,3.491640091E1,-3.196399927E0,-3.092700005E1
4.872794844E0,3.468460083E1,-2.842599869E0,-3.114659882E1
4.892794844E0,3.445280075E1,-2.513200045E0,-3.131739998E1
4.912794844E0,3.398920059E1,-2.025199890E0,-3.181760025E1
4.932794844E0,3.334259796E1,-1.634799957E0,-3.239099884E1
4.952794844E0,3.275699997E1,-1.183400035E0,-3.297660065E1
4.972794844E0,3.192739868E1,-6.100000143E-1,-3.364759827E1
4.992794844E0,3.136619949E1,-2.317999899E-1,-3.412339783E1
5.012794844E0,3.082939911E1,2.073999941E-1,-3.452600098E1
5.032794844E0,3.028039932E1,5.978000164E-1,-3.483099747E1
5.052794844E0,2.995100021E1,8.905999660E-1,-3.502619934E1
5.072794844E0,2.958499908E1,1.293200016E0,-3.519699860E1
5.092794844E0,2.938979912E1,1.634799957E0,-3.533119965E1
5.112794844E0,2.918239975E1,2.000799894E0,-3.546540070E1
5.132794844E0,2.908479881E1,2.440000057E0,-3.559959793E1
5.152794844E0,2.904819870E1,2.903599977E0,-3.572159958E1
5.172794844E0,2.899939919E1,3.391599894E0,-3.567279816E1
5.192794844E0,2.898719978E1,3.830799818E0,-3.568499756E1
5.212794844E0,2.892619896E1,4.013800144E0,-3.564839935E1
5.232794844E0,2.873099899E1,4.135799885E0,-3.558739853E1
5.252794844E0,2.846259880E1,4.184599876E0,-3.574599838E1
5.272794844E0,2.818199921E1,4.404200077E0,-3.588019943E1
5.292794844E0,2.773060036E1,4.867799759E0,-3.618519974E1
5.312794844E0,2.742560005E1,5.599800110E0,-3.642919922E1
5.332794844E0,2.713279915E1,6.636799812E0,-3.638039780E1
5.352794844E0,2.687660027E1,7.673799992E0,-3.630719757E1
5.372794844E0,2.666919899E1,8.722999573E0,-3.598999786E1
5.392794844E0,2.636419868E1,9.735599518E0,-3.579479980E1
5.412794844E0,2.594939995E1,1.054080009E1,-3.584359741E1
5.432794844E0,2.549799919E1,1.133379936E1,-3.600220108E1
5.452794844E0,2.503439903E1,1.212679958E1,-3.613639832E1
5.472794844E0,2.450979996E1,1.284659958E1,-3.623400116E1
5.492794844E0,2.393639946E1,1.363959980E1,-3.639260101E1
5.512794844E0,2.337520027E1,1.446920013E1,-3.629499817E1
5.532794844E0,2.261879921E1,1.537199974E1,-3.625839996E1
5.552794844E0,2.180139923E1,1.645779991E1,-3.618519974E1
5.572794844E0,2.103279877E1,1.760459900E1,-3.592900085E1
5.592794844E0,2.015439987E1,1.869039917E1,-3.584359741E1
5.612794844E0,1.952000046E1,1.961759949E1,-3.584359741E1
5.632794844E0,1.916619873E1,2.005679893E1,-3.584359741E1
5.652794844E0,1.899539948E1,2.011779976E1,-3.590459824E1
5.672794844E0,1.897099876E1,1.973959923E1,-3.602659988E1
5.692794844E0,1.892219925E1,1.917840004E1,-3.622179794E1
5.712794844E0,1.853179932E1,1.864159966E1,-3.659999847E1
5.732794844E0,1.799499893E1,1.840979958E1,-3.700259781E1
5.752794844E0,1.729960060E1,1.871479988E1,-3.707579803E1
5.772794844E0,1.683600044E1,1.933699989E1,-3.712459946E1
5.792794844E0,1.668959999E1,2.003240013E1,-3.683179855E1
5.812794844E0,1.672620010E1,2.045940018E1,-3.651459885E1
5.832794844E0,1.703120041E1,2.039839935E1,-3.640480042E1
5.852794844E0,1.727519989E1,1.989819908E1,-3.645359802E1
5.872794844E0,1.748259926E1,1.920279884E1,-3.651459885E1
5.892794844E0,1.766559982E1,1.855620003E1,-3.667319870E1
5.912794844E0,1.771439934E1,1.811700058E1,-3.691719818E1
5.932794844E0,1.779979897E1,1.787299919E1,-3.684399796E1
5.952794844E0,1.798279953E1,1.784860039E1,-3.691719818E1
5.972794844E0,1.805599976E1,1.784860039E1,-3.690499878E1
5.992794844E0,1.820240021E1,1.788520050E1,-3.686840057E1
6.012794844E0,1.820240021E1,1.793400002E1,-3.688059998E1
6.032794844E0,1.798279953E1,1.792179871E1,-3.685620117E1
6.052794844E0,1.784860039E1,1.787299919E1,-3.685620117E1
6.072794844E0,1.760459900E1,1.767779922E1,-3.689279938E1
6.092794844E0,1.740939903E1,1.744599915E1,-3.714899826E1
6.112794844E0,1.733619881E1,1.726300049E1,-3.747840118E1
6.132794844E0,1.732399940E1,1.717759895E1,-3.771019745E1
6.152794844E0,1.738500023E1,1.710439873E1,-3.789319992E1
6.172794844E0,1.738500023E1,1.707999992E1,-3.783219910E1
6.192794844E0,1.737279892E1,1.721419907E1,-3.762479782E1
6.212794844E0,1.733619881E1,1.742160034E1,-3.736859894E1
6.232794844E0,1.717759895E1,1.778759956E1,-3.714899826E1
6.252794844E0,1.712879944E1,1.810479927E1,-3.697819901E1
6.272794844E0,1.694579887E1,1.819019890E1,-3.701480103E1
6.292794844E0,1.661639977E1,1.815359879E1,-3.712459946E1
6.312794844E0,1.638459969E1,1.809259987E1,-3.723439789E1
6.332794844E0,1.614060020E1,1.804380035E1,-3.727099991E1
6.352794844E0,1.585999966E1,1.809259987E1,-3.731979752E1
6.372794844E0,1.559159946E1,1.817799950E1,-3.739299774E1
6.392794844E0,1.539639950E1,1.810479927E1,-3.740520096E1
6.412794844E0,1.531099987E1,1.814139938E1,-3.752719879E1
6.432794844E0,1.534759998E1,1.804380035E1,-3.752719879E1
6.452794844E0,1.560379982E1,1.777540016E1,-3.746619797E1
6.472794844E0,1.584779930E1,1.754360008E1,-3.752719879E1
6.492794844E0,1.614060020E1,1.705559921E1,-3.741740036E1
6.512794844E0,1.654319954E1,1.651879883E1,-3.740520096E1
6.532794844E0,1.700679970E1,1.600639915E1,-3.736859894E1
6.552794844E0,1.745820045E1,1.538420010E1,-3.736859894E1
6.572794844E0,1.772659874E1,1.476200008E1,-3.747840118E1
6.592794844E0,1.803159904E1,1.421299934E1,-3.750279999E1
6.612794844E0,1.821459961E1,1.389579964E1,-3.749060059E1
6.632794844E0,1.833659935E1,1.373719978E1,-3.739299774E1
6.652794844E0,1.839760017E1,1.395679951E1,-3.713679886E1
6.672794844E0,1.832439995E1,1.439599991E1,-3.701480103E1
6.692794844E0,1.799499893E1,1.483519936E1,-3.701480103E1
6.712794844E0,1.759239960E1,1.539639950E1,-3.695380020E1
6.732794844E0,1.701899910E1,1.582339954E1,-3.706359863E1
6.752794844E0,1.631139946E1,1.618939972E1,-3.711240005E1
6.772794844E0,1.577460003E1,1.657979965E1,-3.702700043E1
6.792794844E0,1.535979939E1,1.689699936E1,-3.694160080E1
6.812794844E0,1.520119953E1,1.731180000E1,-3.689279938E1
6.832794844E0,1.509140015E1,1.779979897E1,-3.663660049E1
6.852794844E0,1.493279934E1,1.850740051E1,-3.635599899E1
6.872794844E0,1.463999939E1,1.938579941E1,-3.605099869E1
6.892794844E0,1.443260002E1,2.026420021E1,-3.553860092E1
6.912794844E0,1.454239941E1,2.102059937E1,-3.503839874E1
6.932794844E0,1.504259968E1,2.126459885E1,-3.470899963E1
6.952794844E0,1.578679943E1,2.102059937E1,-3.444059753E1
6.972794844E0,1.643339920E1,2.036179924E1,-3.451379776E1
6.992794844E0,1.687260056E1,1.949559975E1,-3.483099747E1
