"Time (s)","Magnetic field x (µT)","Magnetic field y (µT)","Magnetic field z (µT)"
8.317463600E-2,2.525625038E1,3.142500114E1,-3.650625229E1
1.031746360E-1,2.291250038E1,3.303750229E1,-3.660000229E1
1.231746360E-1,2.131875038E1,3.442500305E1,-3.676875305E1
1.431746360E-1,1.906875038E1,3.652500153E1,-3.667500305E1
1.631746360E-1,1.683750153E1,3.855000305E1,-3.549375153E1
1.831746360E-1,1.603125000E1,4.050000000E1,-3.459375000E1
2.031746360E-1,1.620000076E1,4.183125305E1,-3.341250229E1
2.231746360E-1,1.687500000E1,4.263750076E1,-3.285000229E1
2.431746360E-1,1.756875038E1,4.280625153E1,-3.350625229E1
2.631746360E-1,1.899375153E1,4.250625229E1,-3.423750305E1
2.831746360E-1,2.066250038E1,4.231875229E1,-3.564375305E1
3.031746360E-1,2.246250153E1,4.151250076E1,-3.721875000E1
3.231746360E-1,2.418750191E1,4.134375000E1,-3.945000076E1
3.431746360E-1,2.446875191E1,4.010625076E1,-4.263750076E1
3.631746360E-1,2.355000114E1,3.750000000E1,-4.625625229E1
3.831746360E-1,2.156250000E1,3.348750305E1,-5.118750381E1
4.031746360E-1,1.854375076E1,2.812500191E1,-5.548125076E1
4.231746360E-1,1.503750038E1,2.203125000E1,-5.919375229E1
4.431746360E-1,9.862500191E0,1.515000057E1,-6.180000305E1
4.631746360E-1,3.262500048E0,7.912500381E0,-6.161250305E1
4.831746360E-1,-4.143750191E0,-3.937500119E-1,-5.938125229E1
5.031746360E-1,-1.162500000E1,-8.962500572E0,-5.538750076E1
5.231746360E-1,-1.760625076E1,-1.723125076E1,-4.965000153E1
5.431746360E-1,-2.079375076E1,-2.465625191E1,-4.387500000E1
5.631746360E-1,-2.186250114E1,-3.112500191E1,-3.840000153E1
5.831746360E-1,-2.143125153E1,-3.658125305E1,-3.305625153E1
6.031746360E-1,-1.976250076E1,-4.044375229E1,-2.964375114E1
6.231746360E-1,-1.807500076E1,-4.327500153E1,-2.724375153E1
6.431746360E-1,-1.715625000E1,-4.507500076E1,-2.566875076E1
6.631746360E-1,-1.668750000E1,-4.610625076E1,-2.473125076E1
6.831746360E-1,-1.663125038E1,-4.741875076E1,-2.306250000E1
7.031746360E-1,-1.710000038E1,-4.856250381E1,-2.094375038E1
7.231746360E-1,-1.755000114E1,-4.961250305E1,-1.882500076E1
7.431746360E-1,-1.822500038E1,-5.043750381E1,-1.625625038E1
7.631746360E-1,-1.908750153E1,-5.116875076E1,-1.391250038E1
7.831746360E-1,-2.047500038E1,-5.143125153E1,-1.171875000E1
8.031746360E-1,-2.190000153E1,-5.137500381E1,-9.750000000E0
8.231746360E-1,-2.351250076E1,-5.086875153E1,-8.362500191E0
8.431746360E-1,-2.574375153E1,-4.951875305E1,-7.425000191E0
8.631746360E-1,-2.776875114E1,-4.843125153E1,-6.637500286E0
8.831746360E-1,-3.011250114E1,-4.678125000E1,-5.737500191E0
9.031746360E-1,-3.255000305E1,-4.494375229E1,-4.856250286E0
9.231746360E-1,-3.435000229E1,-4.284375000E1,-4.893750191E0
9.431746360E-1,-3.592500305E1,-4.065000153E1,-5.887500286E0
9.631746360E-1,-3.705000305E1,-3.873750305E1,-7.012500286E0
9.831746360E-1,-3.763125229E1,-3.744375229E1,-8.456250191E0
1.003174636E0,-3.819375229E1,-3.748125076E1,-8.493750572E0
1.023174636E0,-3.855000305E1,-3.765000153E1,-6.975000381E0
1.043174636E0,-3.858750153E1,-3.810000229E1,-5.400000095E0
1.063174636E0,-3.855000305E1,-3.864375305E1,-3.468750238E0
1.083174636E0,-3.864375305E1,-3.871875000E1,-2.043750048E0
1.103174636E0,-3.898125076E1,-3.838125229E1,-1.912500024E0
1.123174636E0,-3.918750000E1,-3.832500076E1,-2.081250191E0
1.143174636E0,-3.926250076E1,-3.886875153E1,-2.343750000E0
1.163174636E0,-3.920625305E1,-3.952500153E1,-2.493750095E0
1.183174636E0,-3.886875153E1,-4.027500153E1,-1.518750072E0
1.203174636E0,-3.847500229E1,-4.089375305E1,-3.000000119E-1
1.223174636E0,-3.778125000E1,-4.132500076E1,1.031250000E0
1.243174636E0,-3.723750305E1,-4.164375305E1,2.175000191E0
1.263174636E0,-3.628125000E1,-4.275000000E1,2.268750191E0
1.283174636E0,-3.558750153E1,-4.331250000E1,2.118750095E0
1.303174636E0,-3.525000000E1,-4.400625229E1,1.462500095E0
1.323174636E0,-3.450000000E1,-4.492500305E1,7.125000358E-1
1.343174636E0,-3.391875076E1,-4.541250229E1,-0.000000000E0
1.363174636E0,-3.311250305E1,-4.623750305E1,-5.625000000E-1
1.383174636E0,-3.245625305E1,-4.661250305E1,-1.275000095E0
1.403174636E0,-3.191250038E1,-4.685625076E1,-1.987500072E0
1.423174636E0,-3.189375114E1,-4.659375000E1,-2.718750000E0
1.443174636E0,-3.228750229E1,-4.612500000E1,-3.693750143E0
1.463174636E0,-3.256875229E1,-4.599375153E1,-4.500000000E0
1.483174636E0,-3.324375153E1,-4.539375305E1,-5.287500381E0
1.503174636E0,-3.386250305E1,-4.479375076E1,-5.962500095E0
1.523174636E0,-3.446250153E1,-4.410000229E1,-6.581250191E0
1.543174636E0,-3.530625153E1,-4.271250153E1,-6.900000095E0
1.563174636E0,-3.601875305E1,-4.141875076E1,-6.993750095E0
1.583174636E0,-3.663750076E1,-4.023750305E1,-7.293750286E0
1.603174636E0,-3.723750305E1,-3.909375000E1,-8.006250381E0
1.623174636E0,-3.793125153E1,-3.783750153E1,-9.150000572E0
1.643174636E0,-3.856875229E1,-3.682500076E1,-1.053750038E1
1.663174636E0,-3.898125076E1,-3.581250000E1,-1.151250076E1
1.683174636E0,-3.896250153E1,-3.600000000E1,-1.179375076E1
1.703174636E0,-3.849375153E1,-3.669375229E1,-1.134375000E1
1.723174636E0,-3.798750305E1,-3.785625076E1,-1.065000057E1
1.743174636E0,-3.708750153E1,-3.961875153E1,-9.487500191E0
1.763174636E0,-3.641250229E1,-4.072500229E1,-8.306250572E0
1.783174636E0,-3.570000076E1,-4.192500305E1,-7.518750191E0
1.803174636E0,-3.536250305E1,-4.254375076E1,-6.712500095E0
1.823174636E0,-3.534375000E1,-4.261875153E1,-6.656250477E0
1.843174636E0,-3.528750229E1,-4.261875153E1,-7.200000286E0
1.863174636E0,-3.534375000E1,-4.201875305E1,-7.968750477E0
1.883174636E0,-3.528750229E1,-4.126875305E1,-9.150000572E0
1.903174636E0,-3.506250000E1,-4.087500000E1,-1.050000000E1
1.923174636E0,-3.506250000E1,-4.050000000E1,-1.141875076E1
1.943174636E0,-3.495000076E1,-4.066875076E1,-1.203750038E1
1.963174636E0,-3.438750076E1,-4.132500076E1,-1.248750019E1
1.983174636E0,-3.395625305E1,-4.205625153E1,-1.190625000E1
2.003174636E0,-3.294375229E1,-4.293750000E1,-1.194375038E1
2.023174636E0,-3.191250038E1,-4.432500076E1,-1.192500019E1
2.043174636E0,-3.088125038E1,-4.552500153E1,-1.147500038E1
2.063174636E0,-2.983125114E1,-4.635000229E1,-1.173750019E1
2.083174636E0,-2.962500191E1,-4.644375229E1,-1.200000000E1
2.103174636E0,-2.953125191E1,-4.535625076E1,-1.282500076E1
2.123174636E0,-3.011250114E1,-4.305000305E1,-1.528125095E1
2.143174636E0,-3.080625153E1,-4.014375305E1,-1.854375076E1
2.163174636E0,-3.067500114E1,-3.680625153E1,-2.221875000E1
2.183174636E0,-3.063750076E1,-3.375000000E1,-2.617500114E1
2.203174636E0,-2.990625191E1,-3.204375076E1,-2.855625153E1
2.223174636E0,-2.891250038E1,-3.061875153E1,-3.063750076E1
2.243174636E0,-2.793750191E1,-2.971875191E1,-3.208125305E1
2.263174636E0,-2.643750191E1,-2.836875153E1,-3.375000000E1
2.283174636E0,-2.445000076E1,-2.595000076E1,-3.693750000E1
2.303174636E0,-2.236875153E1,-2.319375038E1,-3.980625153E1
2.323174636E0,-1.912500000E1,-1.996875000E1,-4.290000153E1
2.343174636E0,-1.539375019E1,-1.736250114E1,-4.569375229E1
2.363174636E0,-1.158750057E1,-1.500000095E1,-4.756875229E1
2.383174636E0,-7.331250191E0,-1.290000057E1,-4.920000076E1
2.403174636E0,-3.881250143E0,-1.160625076E1,-5.075625229E1
2.423174636E0,-5.062500238E-1,-9.993750572E0,-5.122500229E1
2.443174636E0,2.700000048E0,-8.906250000E0,-5.116875076E1
2.463174636E0,5.512500286E0,-7.837500095E0,-5.092500305E1
2.483174636E0,7.893750191E0,-7.068750381E0,-5.060625076E1
2.503174636E0,9.956250191E0,-6.618750095E0,-5.040000153E1
2.523174636E0,1.183125019E1,-5.962500095E0,-5.040000153E1
2.543174636E0,1.378125095E1,-5.850000381E0,-5.040000153E1
2.563174636E0,1.541250038E1,-5.325000286E0,-4.989375305E1
2.583174636E0,1.687500000E1,-5.081250191E0,-4.965000153E1
2.603174636E0,1.833750153E1,-4.950000286E0,-4.957500076E1
2.623174636E0,2.000625038E1,-4.556250095E0,-4.912500381E1
2.643174636E0,2.161875153E1,-4.031250000E0,-4.876875305E1
2.663174636E0,2.295000076E1,-3.412500143E0,-4.835625076E1
2.683174636E0,2.373750114E1,-2.943750143E0,-4.783125305E1
2.703174636E0,2.420625114E1,-2.512500048E0,-4.751250076E1
2.723174636E0,2.493750191E1,-2.362500191E0,-4.751250076E1
2.743174636E0,2.566875076E1,-1.668750048E0,-4.743750000E1
2.763174636E0,2.610000038E1,-5.250000358E-1,-4.743750000E1
2.783174636E0,2.596875191E1,3.937500119E-1,-4.800000000E1
2.803174636E0,2.471250153E1,1.725000024E0,-4.837500381E1
2.823174636E0,2.313750076E1,3.000000000E0,-4.920000076E1
2.843174636E0,2.201250076E1,4.256250381E0,-4.953750229E1
2.863174636E0,2.118750000E1,6.487500191E0,-4.970625305E1
2.883174636E0,2.109375000E1,8.756250381E0,-4.944375229E1
2.903174636E0,2.100000000E1,1.110000038E1,-4.880625153E1
2.923174636E0,2.062500000E1,1.314375019E1,-4.824375153E1
2.943174636E0,1.998750114E1,1.466250038E1,-4.732500076E1
2.963174636E0,1.993125153E1,1.578750038E1,-4.636875153E1
2.983174636E0,2.011875153E1,1.665000153E1,-4.520625305E1
3.003174636E0,2.043750000E1,1.738125038E1,-4.335000229E1
3.023174636E0,2.090625000E1,1.785000038E1,-4.147500229E1
3.043174636E0,2.160000038E1,1.822500038E1,-4.025625229E1
3.063174636E0,2.257500076E1,1.811250114E1,-3.879375076E1
3.083174636E0,2.386875153E1,1.766250038E1,-3.765000153E1
3.103174636E0,2.574375153E1,1.689375114E1,-3.678750229E1
3.123174636E0,2.784375191E1,1.618125153E1,-3.541875076E1
3.143174636E0,3.015000153E1,1.516875076E1,-3.395625305E1
3.163174636E0,3.301875305E1,1.395000076E1,-3.243750000E1
3.183174636E0,3.577500153E1,1.273125076E1,-3.001875114E1
3.203174636E0,3.823125076E1,1.151250076E1,-2.737500191E1
3.223174636E0,4.057500076E1,1.042500019E1,-2.520000076E1
3.243174636E0,4.237500000E1,9.337500572E0,-2.289375114E1
3.263174636E0,4.408125305E1,8.231250763E0,-2.088750076E1
3.283174636E0,4.546875000E1,6.693750381E0,-1.880625153E1
3.303174636E0,4.659375000E1,5.850000381E0,-1.621875000E1
3.323174636E0,4.740000153E1,5.193750381E0,-1.417500019E1
3.343174636E0,4.796250153E1,4.893750191E0,-1.256250095E1
3.363174636E0,4.861875153E1,4.968750000E0,-1.111875057E1
3.383174636E0,4.882500076E1,4.312500000E0,-9.956250191E0
3.403174636E0,4.920000076E1,4.125000000E0,-9.056250572E0
3.423174636E0,4.921875381E1,3.543750048E0,-7.575000286E0
3.443174636E0,4.895625305E1,3.093750238E0,-6.881250381E0
3.463174636E0,4.925625229E1,2.850000143E0,-6.468750477E0
3.483174636E0,4.916250229E1,2.043750048E0,-6.243750095E0
3.503174636E0,4.916250229E1,1.781250119E0,-6.975000381E0
3.523174636E0,4.933125305E1,1.068750024E0,-7.143750191E0
3.543174636E0,4.914375305E1,5.625000000E-1,-7.406250477E0
3.563174636E0,4.906875229E1,2.250000089E-1,-7.518750191E0
3.583174636E0,4.895625305E1,-4.687500298E-1,-7.350000381E0
3.603174636E0,4.878750229E1,-7.312500477E-1,-7.443750381E0
3.623174636E0,4.828125381E1,-7.312500477E-1,-7.987500191E0
3.643174636E0,4.816875076E1,-4.500000179E-1,-8.306250572E0
3.663174636E0,4.822500229E1,-1.125000045E-1,-9.037500381E0
3.683174636E0,4.807500076E1,3.937500119E-1,-9.768750191E0
3.703174636E0,4.839375305E1,7.500000000E-1,-1.014375019E1
3.723174636E0,4.845000076E1,7.875000238E-1,-1.031250000E1
3.743174636E0,4.854375076E1,8.625000119E-1,-1.031250000E1
3.763174636E0,4.166250229E1,6.450000286E0,-8.737500191E0
3.783174636E0,4.185000229E1,6.675000191E0,-8.400000572E0
3.803174636E0,4.177500153E1,7.181250095E0,-7.931250095E0
3.823174636E0,4.203750229E1,7.931250095E0,-7.425000191E0
3.843174636E0,4.215000153E1,8.812500000E0,-7.012500286E0
3.863174636E0,4.213125229E1,9.300000191E0,-6.525000095E0
3.883174636E0,4.228125000E1,9.431250572E0,-6.243750095E0
3.903174636E0,4.224375153E1,9.618750572E0,-5.850000381E0
3.923174636E0,4.211250305E1,9.206250191E0,-5.775000095E0
3.943174636E0,4.216875076E1,9.056250572E0,-6.037500381E0
3.963174636E0,4.211250305E1,8.700000763E0,-6.356250286E0
3.983174636E0,4.166250229E1,7.893750191E0,-6.862500191E0
4.003174636E0,4.147500229E1,7.500000477E0,-7.481250286E0
4.023174636E0,4.130625153E1,6.712500095E0,-8.325000763E0
4.043174636E0,4.130625153E1,6.450000286E0,-8.868750572E0
4.063174636E0,4.125000000E1,6.037500381E0,-9.150000572E0
4.083174636E0,4.143750000E1,5.531250000E0,-9.075000763E0
4.103174636E0,4.186875153E1,5.212500095E0,-8.175000191E0
4.123174636E0,4.177500153E1,4.556250095E0,-7.631250381E0
4.143174636E0,4.273125076E1,3.300000191E0,-7.181250095E0
4.163174636E0,4.293750000E1,3.037500143E0,-6.637500286E0
4.183174636E0,4.286250305E1,2.475000143E0,-6.112500191E0
4.203174636E0,4.327500153E1,1.856250048E0,-5.756250381E0
4.223174636E0,4.303125000E1,1.050000072E0,-5.343750000E0
4.243174636E0,4.269375229E1,2.062500119E-1,-5.231250286E0
4.263174636E0,4.248750305E1,-3.375000060E-1,-5.268750191E0
4.283174636E0,4.215000153E1,-1.125000000E0,-5.137500286E0
4.303174636E0,4.164375305E1,-1.987500072E0,-5.718750000E0
4.323174636E0,4.143750000E1,-2.868750095E0,-6.600000381E0
4.343174636E0,4.085625076E1,-4.181250095E0,-7.706250191E0
4.363174636E0,4.014375305E1,-5.137500286E0,-9.843750000E0
4.383174636E0,3.937500000E1,-6.543750286E0,-1.183125019E1
4.403174636E0,3.828750229E1,-8.118750572E0,-1.374375057E1
4.423174636E0,3.708750153E1,-9.675000191E0,-1.606875038E1
4.443174636E0,3.601875305E1,-1.093125057E1,-1.779375076E1
4.463174636E0,3.545625305E1,-1.203750038E1,-1.906875038E1
4.483174636E0,3.461250305E1,-1.243125057E1,-2.032500076E1
4.503174636E0,3.405000305E1,-1.231875038E1,-2.122500038E1
4.523174636E0,3.360000229E1,-1.275000095E1,-2.195625114E1
4.543174636E0,3.294375229E1,-1.288125038E1,-2.265000153E1
4.563174636E0,3.300000000E1,-1.333125019E1,-2.276250076E1
4.583174636E0,3.330000305E1,-1.419375038E1,-2.257500076E1
4.603174636E0,3.350625229E1,-1.445625019E1,-2.188125038E1
4.623174636E0,3.375000000E1,-1.451250076E1,-2.101875114E1
4.643174636E0,3.423750305E1,-1.468125057E1,-2.023125076E1
4.663174636E0,3.457500076E1,-1.453125095E1,-1.890000153E1
4.683174636E0,3.491250229E1,-1.443750095E1,-1.770000076E1
4.703174636E0,3.564375305E1,-1.468125057E1,-1.704375076E1
4.723174636E0,3.598125076E1,-1.453125095E1,-1.642500114E1
4.743174636E0,3.639375305E1,-1.413750076E1,-1.642500114E1
4.763174636E0,3.750000000E1,-1.451250076E1,-1.734375000E1
4.783174636E0,3.761250305E1,-1.357500076E1,-1.700625038E1
4.803174636E0,3.757500076E1,-1.245000076E1,-1.710000038E1
4.823174636E0,3.736875153E1,-1.168125057E1,-1.723125076E1
4.843174636E0,3.731250000E1,-1.076250076E1,-1.715625000E1
4.863174636E0,3.720000076E1,-9.975000381E0,-1.666875076E1
4.883174636E0,3.768750000E1,-9.525000572E0,-1.595625019E1
4.903174636E0,3.840000153E1,-8.868750572E0,-1.466250038E1
4.923174636E0,3.945000076E1,-7.856250286E0,-1.353750038E1
4.943174636E0,4.040625000E1,-6.581250191E0,-1.179375076E1
4.963174636E0,4.110000229E1,-5.512500286E0,-9.693750381E0
4.983174636E0,4.203750229E1,-3.918750048E0,-8.175000191E0
5.003174636E0,4.226250076E1,-2.568750143E0,-6.037500381E0
5.023174636E0,4.284375000E1,-1.743750095E0,-3.918750048E0
5.043174636E0,4.320000076E1,-1.481250048E0,-1.181250095E0
5.063174636E0,4.333125305E1,-1.762500048E0,1.050000072E0
5.083174636E0,4.331250000E1,-2.100000143E0,2.925000191E0
5.103174636E0,4.336875153E1,-1.800000072E0,4.256250381E0
5.123174636E0,4.351875305E1,-6.375000477E-1,4.200000286E0
5.143174636E0,4.329375076E1,9.375000596E-1,4.612500191E0
5.163174636E0,4.329375076E1,2.306250095E0,4.856250286E0
5.183174636E0,4.327500153E1,3.037500143E0,4.725000381E0
5.203174636E0,4.293750000E1,3.675000191E0,4.725000381E0
5.223174636E0,4.308750153E1,4.125000000E0,4.856250286E0
5.243174636E0,4.323750305E1,5.193750381E0,5.156250000E0
5.263174636E0,4.299375153E1,6.843750477E0,5.625000000E0
5.283174636E0,4.314375305E1,8.550000191E0,6.356250286E0
5.303174636E0,4.286250305E1,1.023750019E1,7.031250477E0
5.323174636E0,4.299375153E1,1.095000076E1,6.806250095E0
5.343174636E0,4.310625076E1,1.185000038E1,6.281250477E0
5.363174636E0,4.295625305E1,1.213125038E1,5.175000191E0
5.383174636E0,4.301250076E1,1.222500038E1,3.187500238E0
5.403174636E0,4.301250076E1,1.177500057E1,1.593750119E0
5.423174636E0,4.320000076E1,1.104375076E1,4.875000119E-1
5.443174636E0,4.333125305E1,1.076250076E1,1.312500089E-1
5.463174636E0,4.342500305E1,1.040625000E1,2.812500000E-1
5.483174636E0,4.346250153E1,1.033125019E1,7.312500477E-1
5.503174636E0,4.359375000E1,9.937500000E0,-5.625000224E-2
5.523174636E0,4.366875076E1,9.581250191E0,-1.031250000E0
5.543174636E0,4.370625305E1,8.812500000E0,-2.193750143E0
5.563174636E0,4.355625153E1,7.893750191E0,-3.900000095E0
5.583174636E0,4.346250153E1,6.412500381E0,-5.325000286E0
5.603174636E0,4.299375153E1,4.500000000E0,-6.787500381E0
5.623174636E0,4.258125305E1,2.287500143E0,-8.812500000E0
5.643174636E0,4.231875229E1,1.500000060E-1,-1.102500057E1
5.663174636E0,4.166250229E1,-1.987500072E0,-1.291875076E1
5.683174636E0,4.113750076E1,-3.393750191E0,-1.488750076E1
5.703174636E0,4.061250305E1,-4.068750381E0,-1.586250019E1
5.723174636E0,4.020000076E1,-4.856250286E0,-1.650000000E1
5.743174636E0,3.991875076E1,-4.818750381E0,-1.695000076E1
5.763174636E0,3.971250153E1,-5.118750095E0,-1.666875076E1
5.783174636E0,3.997500229E1,-6.112500191E0,-1.573125076E1
5.803174636E0,4.014375305E1,-6.881250381E0,-1.428750038E1
5.823174636E0,4.044375229E1,-8.250000000E0,-1.269375038E1
5.843174636E0,4.051875305E1,-9.543750763E0,-1.166250038E1
5.863174636E0,4.020000076E1,-1.050000000E1,-1.089375019E1
5.883174636E0,3.984375000E1,-1.181250000E1,-1.044375038E1
5.903174636E0,3.948750305E1,-1.325625038E1,-1.012500000E1
5.923174636E0,3.935625076E1,-1.458750057E1,-9.393750191E0
5.943174636E0,3.965625000E1,-1.526250076E1,-9.112500191E0
5.963174636E0,3.920625305E1,-1.597500038E1,-8.925000191E0
5.983174636E0,3.890625000E1,-1.642500114E1,-9.187500000E0
6.003174636E0,3.864375305E1,-1.687500000E1,-9.168750763E0
6.023174636E0,3.883125305E1,-1.760625076E1,-9.562500000E0
6.043174636E0,3.894375229E1,-1.785000038E1,-9.056250572E0
6.063174636E0,3.946875000E1,-1.779375076E1,-8.043750763E0
6.083174636E0,3.986250305E1,-1.713750076E1,-7.425000191E0
6.103174636E0,4.044375229E1,-1.599375057E1,-6.206250191E0
6.123174636E0,4.147500229E1,-1.447500038E1,-4.968750000E0
6.143174636E0,4.218750000E1,-1.235625076E1,-3.431250095E0
6.163174636E0,4.310625076E1,-1.063125038E1,-1.762500048E0
6.183174636E0,4.363125229E1,-9.337500572E0,-5.625000000E-1
6.203174636E0,4.408125305E1,-8.100000381E0,6.187500358E-1
6.223174636E0,4.455000305E1,-7.593750477E0,1.237500072E0
6.243174636E0,4.471875000E1,-6.768750191E0,2.193750143E0
6.263174636E0,4.481250000E1,-6.525000095E0,3.131250143E0
6.283174636E0,4.455000305E1,-5.868750095E0,4.725000381E0
6.303174636E0,4.404375076E1,-4.537500381E0,7.406250477E0
6.323174636E0,4.378125000E1,-2.812500000E0,9.525000572E0
6.343174636E0,4.338750076E1,-3.562500179E-1,1.198125076E1
6.363174636E0,4.314375305E1,2.475000143E0,1.363125038E1
6.383174636E0,4.306875229E1,5.137500286E0,1.396875095E1
6.403174636E0,4.275000000E1,7.125000477E0,1.383750057E1
6.423174636E0,4.284375000E1,8.006250381E0,1.286250019E1
6.443174636E0,4.312500000E1,8.081250191E0,1.185000038E1
6.463174636E0,4.297500229E1,7.725000381E0,1.119375038E1
6.483174636E0,4.284375000E1,7.200000286E0,1.096875000E1
6.503174636E0,4.308750153E1,6.862500191E0,1.096875000E1
6.523174636E0,4.316250229E1,6.693750381E0,1.033125019E1
6.543174636E0,4.355625153E1,6.656250477E0,9.412500381E0
6.563174636E0,4.387500000E1,6.112500191E0,8.606250763E0
6.583174636E0,4.413750076E1,5.175000191E0,7.406250477E0
6.603174636E0,4.391250229E1,4.706250191E0,7.162500381E0
6.623174636E0,4.395000076E1,4.162500381E0,7.218750477E0
6.643174636E0,4.411875153E1,4.181250095E0,7.125000477E0
6.663174636E0,4.430625153E1,3.975000143E0,6.637500286E0
6.683174636E0,4.423125076E1,3.562500238E0,6.225000381E0
6.703174636E0,4.428750229E1,2.737500191E0,5.400000095E0
6.723174636E0,4.415625000E1,9.187500477E-1,4.556250095E0
6.743174636E0,4.479375076E1,-1.425000072E0,3.525000095E0
6.763174636E0,4.492500305E1,-3.918750048E0,2.775000095E0
6.783174636E0,4.440000153E1,-6.431250095E0,2.550000191E0
6.803174636E0,4.426875305E1,-7.818750381E0,2.906250000E0
6.823174636E0,4.380000305E1,-8.137500763E0,3.712500095E0
6.843174636E0,4.370625305E1,-7.781250477E0,4.612500191E0
6.863174636E0,4.404375076E1,-6.637500286E0,5.193750381E0
6.883174636E0,4.408125305E1,-5.550000191E0,5.475000381E0
6.903174636E0,4.451250076E1,-4.556250095E0,5.437500000E0
6.923174636E0,4.438125229E1,-3.993750095E0,5.118750095E0
