"Time (s)","X (µT)","Y (µT)","Z (µT)"
2.323304166E-2,-3.991293335E1,1.557609558E1,-2.281414795E1
4.334804165E-2,-3.826200867E1,1.827841187E1,-2.356811523E1
6.346404165E-2,-3.659695435E1,2.065295410E1,-2.415733337E1
8.358004165E-2,-3.493864441E1,2.269573212E1,-2.496824646E1
1.036950416E-1,-3.295874023E1,2.496589661E1,-2.498193359E1
1.238110416E-1,-3.091107178E1,2.694524384E1,-2.587371826E1
1.439260417E-1,-2.869821167E1,2.887113953E1,-2.616406250E1
1.640420417E-1,-2.656770325E1,3.066293335E1,-2.641601562E1
1.841580417E-1,-2.444375610E1,3.227776337E1,-2.692149353E1
2.042730417E-1,-2.225344849E1,3.355871582E1,-2.688478088E1
2.243890417E-1,-2.016902161E1,3.424409485E1,-2.717808533E1
2.445050417E-1,-1.916418457E1,3.471912384E1,-2.721110535E1
2.646200416E-1,-1.835248566E1,3.531334686E1,-2.712336731E1
2.847360416E-1,-1.801826477E1,3.556596375E1,-2.722640991E1
3.048520416E-1,-1.831152344E1,3.559107971E1,-2.662127686E1
3.249670416E-1,-1.887966156E1,3.554943848E1,-2.682405090E1
3.450830416E-1,-1.942924500E1,3.542865753E1,-2.682560730E1
3.651990416E-1,-2.049819946E1,3.480055237E1,-2.679753113E1
3.853140417E-1,-2.262149048E1,3.375343323E1,-2.659295654E1
4.054300417E-1,-2.451905823E1,3.235963440E1,-2.659800720E1
4.255460417E-1,-2.732002258E1,3.030961609E1,-2.570951843E1
4.456610417E-1,-3.060639954E1,2.818367767E1,-2.506637573E1
4.657770417E-1,-3.344471741E1,2.538162994E1,-2.350094604E1
4.858920416E-1,-3.673544312E1,2.320719147E1,-2.211236572E1
5.060080416E-1,-3.922331238E1,2.037751007E1,-2.031147766E1
5.261240416E-1,-4.169360352E1,1.792860413E1,-1.808735657E1
5.462390417E-1,-4.343502808E1,1.527587128E1,-1.569686890E1
5.663550417E-1,-4.514541626E1,1.240309143E1,-1.308946228E1
5.864710417E-1,-4.665493774E1,9.024955750E0,-1.033589172E1
6.065860417E-1,-4.749105835E1,5.625503540E0,-8.256889343E0
6.267020417E-1,-4.780000305E1,2.253128052E0,-6.218376160E0
6.468180417E-1,-4.805250549E1,-1.222747803E0,-4.616752625E0
6.669330416E-1,-4.787161255E1,-4.208854675E0,-4.048309326E0
6.870490416E-1,-4.760057068E1,-7.374446869E0,-3.894584656E0
7.071650416E-1,-4.717842102E1,-9.696800232E0,-3.647682190E0
7.272800416E-1,-4.687474060E1,-1.164606476E1,-3.284416199E0
7.473960416E-1,-4.655516052E1,-1.313335800E1,-2.751831055E0
7.675120416E-1,-4.622491455E1,-1.369050980E1,-2.568984985E0
7.876270417E-1,-4.633918762E1,-1.420441055E1,-2.910736084E0
8.077430417E-1,-4.623446655E1,-1.451665497E1,-3.072685242E0
8.278580417E-1,-4.640083313E1,-1.365480042E1,-3.258728027E0
8.479740417E-1,-4.696728516E1,-1.205917740E1,-3.757965088E0
8.680900417E-1,-4.716667175E1,-9.513633728E0,-4.337440491E0
8.882050416E-1,-4.746669006E1,-7.166557312E0,-4.472465515E0
9.083210416E-1,-4.775828552E1,-4.404972076E0,-5.111862183E0
9.284370416E-1,-4.781243896E1,-1.576522827E0,-5.673294067E0
9.485520417E-1,-4.784077454E1,1.067886353E0,-6.353660583E0
9.686680417E-1,-4.777116394E1,3.401435852E0,-6.754249573E0
9.887840417E-1,-4.761854553E1,5.332305908E0,-6.965576172E0
1.008899042E0,-4.717431641E1,7.769058228E0,-7.954490662E0
1.029015042E0,-4.663673401E1,1.025478363E1,-8.578018188E0
1.049131042E0,-4.569464111E1,1.317325592E1,-9.709007263E0
1.069246042E0,-4.453549194E1,1.552837372E1,-1.127392578E1
1.089362042E0,-4.312919617E1,1.831640625E1,-1.343264771E1
1.109477042E0,-4.124383545E1,2.023744965E1,-1.572639465E1
1.129593042E0,-3.962934875E1,2.179688263E1,-1.751928711E1
1.149709208E0,-3.785787964E1,2.316799927E1,-2.051603699E1
1.169824208E0,-3.601075745E1,2.408426666E1,-2.228269958E1
1.189940208E0,-3.415858459E1,2.541376495E1,-2.369238281E1
1.210056208E0,-3.235159302E1,2.660376740E1,-2.500881958E1
1.230171208E0,-3.057080078E1,2.745756531E1,-2.564955139E1
1.250287208E0,-2.925677490E1,2.865061188E1,-2.634049988E1
1.270403208E0,-2.762115479E1,2.984764099E1,-2.711717224E1
1.290518208E0,-2.602690125E1,3.085821533E1,-2.712068176E1
1.310634208E0,-2.509638977E1,3.183698273E1,-2.711088562E1
1.330750208E0,-2.448970032E1,3.188691711E1,-2.736119080E1
1.350865208E0,-2.449211121E1,3.190489960E1,-2.830079651E1
1.370981208E0,-2.404365540E1,3.148017120E1,-2.866201782E1
1.391096208E0,-2.442671204E1,3.078841400E1,-2.947161865E1
1.411212208E0,-2.480831909E1,3.035634613E1,-2.936907959E1
1.431328208E0,-2.572921753E1,2.987905121E1,-2.904493713E1
1.451443208E0,-2.691119385E1,2.898741150E1,-2.852331543E1
1.471559208E0,-2.856411743E1,2.809095001E1,-2.804051208E1
1.491675208E0,-3.103784180E1,2.632765198E1,-2.712236023E1
1.511790208E0,-3.353308105E1,2.500687408E1,-2.564886475E1
1.531906208E0,-3.600666809E1,2.300900269E1,-2.344895935E1
1.552022208E0,-3.835118103E1,2.140901184E1,-2.151744080E1
1.572137208E0,-3.994493103E1,1.969017792E1,-1.943923950E1
1.592253208E0,-4.200588989E1,1.782772827E1,-1.723602295E1
1.612368208E0,-4.365444946E1,1.546484375E1,-1.463316345E1
1.632484208E0,-4.546017456E1,1.272012329E1,-1.244841003E1
1.652600208E0,-4.668579102E1,9.489318848E0,-1.037953186E1
1.672715208E0,-4.757109070E1,5.894554138E0,-9.182151794E0
1.692831208E0,-4.804252625E1,2.331924438E0,-8.455047607E0
1.712947208E0,-4.807382202E1,-1.104446411E0,-7.826133728E0
1.733062208E0,-4.807267761E1,-3.948940277E0,-7.812767029E0
1.753178208E0,-4.775476074E1,-6.785453796E0,-7.997001648E0
1.773294208E0,-4.721151733E1,-8.833843231E0,-8.453567505E0
1.793409208E0,-4.654710388E1,-1.022850418E1,-9.732398987E0
1.813525208E0,-4.657397461E1,-1.053191376E1,-1.048004150E1
1.833640208E0,-4.642570496E1,-1.080009842E1,-1.015119934E1
1.853756208E0,-4.656607056E1,-1.050757980E1,-1.009396362E1
1.873872208E0,-4.647688293E1,-9.927368164E0,-9.678565979E0
1.893987208E0,-4.703378296E1,-8.765270233E0,-8.822624207E0
1.914103208E0,-4.729235840E1,-6.969295502E0,-8.500724792E0
1.934219208E0,-4.724806213E1,-5.187992096E0,-8.434547424E0
1.954334208E0,-4.765454102E1,-2.849201202E0,-8.584983826E0
1.974450208E0,-4.789852905E1,-3.843078613E-1,-8.187110901E0
1.994566208E0,-4.770654297E1,1.847190857E0,-7.957664490E0
2.014681208E0,-4.750737000E1,3.169189453E0,-7.868652344E0
2.034797208E0,-4.777848816E1,4.950553894E0,-7.817657471E0
2.054913208E0,-4.729251099E1,7.047866821E0,-9.359077454E0
2.075028208E0,-4.673283386E1,8.957557678E0,-1.003044128E1
2.095144208E0,-4.586622620E1,1.140071869E1,-1.184761047E1
2.115259208E0,-4.461373901E1,1.439336395E1,-1.377467346E1
2.135375208E0,-4.285110474E1,1.693011475E1,-1.606129456E1
2.155490542E0,-4.104113770E1,1.916153717E1,-1.806663513E1
2.175605542E0,-3.886061096E1,2.151453400E1,-2.006590271E1
2.195721542E0,-3.672773743E1,2.416950226E1,-2.182626343E1
2.215837542E0,-3.443853760E1,2.621212006E1,-2.297940063E1
2.235952542E0,-3.217210388E1,2.828942108E1,-2.367790222E1
2.256068542E0,-2.985154724E1,3.017513275E1,-2.414387512E1
2.276184542E0,-2.806271362E1,3.170305634E1,-2.412780762E1
2.296299542E0,-2.629660034E1,3.324729919E1,-2.448718262E1
2.316415542E0,-2.475723267E1,3.431257629E1,-2.459747314E1
2.336530542E0,-2.330703735E1,3.527577209E1,-2.445750427E1
2.356646542E0,-2.245527649E1,3.620245361E1,-2.449769592E1
2.376762542E0,-2.135404968E1,3.697238159E1,-2.453862000E1
2.396877542E0,-2.034568024E1,3.740647888E1,-2.464413452E1
2.416993542E0,-1.980226898E1,3.768868256E1,-2.406748962E1
2.437109542E0,-1.982345581E1,3.732006073E1,-2.437188721E1
2.457224542E0,-2.039658356E1,3.697187805E1,-2.463781738E1
2.477340542E0,-2.132524109E1,3.651985931E1,-2.465150452E1
2.497456542E0,-2.323095703E1,3.512770081E1,-2.488252258E1
2.517571542E0,-2.572497559E1,3.365142059E1,-2.471803284E1
2.537687542E0,-2.735919189E1,3.270676422E1,-2.473756409E1
2.557802542E0,-3.124404907E1,2.945399475E1,-2.384133911E1
2.577918542E0,-3.408052063E1,2.730844879E1,-2.262272644E1
2.598034542E0,-3.687443542E1,2.517837524E1,-2.104988098E1
2.618149542E0,-3.934191895E1,2.285633850E1,-1.954591370E1
2.638265542E0,-4.149070740E1,1.995925140E1,-1.723472595E1
2.658381542E0,-4.374761963E1,1.707337189E1,-1.564361572E1
2.678496542E0,-4.516592407E1,1.371507263E1,-1.345741272E1
2.698612542E0,-4.640307617E1,1.042595673E1,-1.234039307E1
2.718728542E0,-4.746798706E1,7.184692383E0,-1.097953796E1
2.738843542E0,-4.788658142E1,3.872734070E0,-9.777099609E0
2.758959542E0,-4.832621765E1,9.257049561E-1,-8.885848999E0
2.779074542E0,-4.842706299E1,-1.684539795E0,-8.117164612E0
2.799190542E0,-4.837919617E1,-3.743919373E0,-7.229743958E0
2.819306542E0,-4.815249634E1,-5.563133240E0,-6.554779053E0
2.839421542E0,-4.803627014E1,-6.683189392E0,-5.948280334E0
2.859537542E0,-4.809776306E1,-7.438453674E0,-5.381065369E0
2.879653542E0,-4.792269897E1,-7.659801483E0,-4.939872742E0
2.899768542E0,-4.815435791E1,-7.527626038E0,-4.768516541E0
2.919884542E0,-4.837753296E1,-6.850753784E0,-4.726860046E0
2.939999542E0,-4.839324951E1,-5.612434387E0,-5.032363892E0
2.960115542E0,-4.823071289E1,-3.997486115E0,-6.213790894E0
2.980231542E0,-4.835548401E1,-2.005317688E0,-7.333915710E0
3.000346542E0,-4.839646912E1,6.149291992E-2,-8.011978149E0
3.020462542E0,-4.805209351E1,1.640594482E0,-9.131759644E0
3.040578542E0,-4.816134644E1,3.221168518E0,-9.627326965E0
3.060693542E0,-4.784700012E1,5.146728516E0,-1.021057129E1
3.080809542E0,-4.754579163E1,6.645736694E0,-1.108656311E1
3.100924542E0,-4.690721130E1,8.599182129E0,-1.188371277E1
3.121040542E0,-4.582167053E1,1.102996826E1,-1.371374512E1
3.141156542E0,-4.482037354E1,1.310340881E1,-1.519490051E1
3.161272208E0,-4.372337341E1,1.509680176E1,-1.703526306E1
3.181388208E0,-4.206941223E1,1.699505615E1,-1.920393372E1
3.201504208E0,-4.046626282E1,1.891704559E1,-2.064273071E1
3.221619208E0,-3.891351318E1,2.028495026E1,-2.186621094E1
3.241735208E0,-3.759669495E1,2.177210236E1,-2.315209961E1
3.261851208E0,-3.657408142E1,2.312442780E1,-2.409164429E1
3.281966208E0,-3.509832764E1,2.441879272E1,-2.475798035E1
3.302082208E0,-3.365257263E1,2.569177246E1,-2.526376343E1
3.322197208E0,-3.251260376E1,2.663037872E1,-2.591804504E1
3.342313208E0,-3.105259705E1,2.763597870E1,-2.611326599E1
3.362429208E0,-2.984625244E1,2.870547485E1,-2.696096802E1
3.382544208E0,-2.864344788E1,2.934407806E1,-2.687745667E1
3.402660208E0,-2.772650146E1,2.978136444E1,-2.760256958E1
3.422776208E0,-2.788217163E1,3.017740631E1,-2.730824280E1
3.442891208E0,-2.757299805E1,3.066983795E1,-2.714085388E1
3.463007208E0,-2.763964844E1,3.084860992E1,-2.727761841E1
3.483122208E0,-2.802796936E1,3.064111328E1,-2.686074829E1
3.503238208E0,-2.853189087E1,3.027138519E1,-2.703791809E1
3.523354208E0,-2.944238281E1,2.925655365E1,-2.677903748E1
3.543469208E0,-3.093469238E1,2.793435669E1,-2.645127869E1
3.563585208E0,-3.304777527E1,2.620721436E1,-2.560763550E1
3.583701208E0,-3.530335999E1,2.411021423E1,-2.465254211E1
3.603816208E0,-3.780072021E1,2.218165588E1,-2.319194031E1
3.623932208E0,-3.983035278E1,2.010907745E1,-2.152174377E1
3.644047208E0,-4.165107727E1,1.786514282E1,-1.956979370E1
3.664163208E0,-4.341966248E1,1.567231750E1,-1.774116516E1
3.684279208E0,-4.492173767E1,1.328353882E1,-1.566838074E1
3.704394208E0,-4.639314270E1,1.035081482E1,-1.381799316E1
3.724510208E0,-4.748692322E1,7.212417603E0,-1.148806763E1
3.744626208E0,-4.820742798E1,4.189163208E0,-9.712867737E0
3.764741208E0,-4.855566406E1,1.044746399E0,-8.220184326E0
3.784857208E0,-4.866842651E1,-1.649116516E0,-6.907600403E0
3.804973208E0,-4.858766174E1,-3.875202179E0,-5.749893188E0
3.825088208E0,-4.886512756E1,-6.206985474E0,-4.934898376E0
3.845204208E0,-4.845054626E1,-8.275234222E0,-4.037605286E0
3.865319208E0,-4.827471924E1,-9.613204956E0,-3.506614685E0
3.885435208E0,-4.814794922E1,-1.053063583E1,-3.337951660E0
3.905551208E0,-4.814909363E1,-1.126163864E1,-2.973045349E0
3.925666208E0,-4.768074036E1,-1.147483826E1,-3.503547668E0
3.945782208E0,-4.788279724E1,-1.112236786E1,-3.651046753E0
3.965897208E0,-4.805223083E1,-1.053877258E1,-3.688774109E0
3.986013208E0,-4.809710693E1,-9.700553894E0,-4.317024231E0
4.006129208E0,-4.798583984E1,-8.159713745E0,-5.094139099E0
4.026244208E0,-4.836381531E1,-6.169178009E0,-6.070938110E0
4.046360208E0,-4.886647034E1,-4.060237885E0,-6.936920166E0
4.066476208E0,-4.866961670E1,-2.008762360E0,-7.694618225E0
4.086591208E0,-4.848951721E1,3.655242920E-2,-8.618629456E0
4.106707208E0,-4.827078247E1,1.885513306E0,-9.714714050E0
4.126823208E0,-4.782826233E1,4.154724121E0,-1.033526611E1
4.146938208E0,-4.732597351E1,6.142601013E0,-1.154666138E1
4.167053417E0,-4.684884644E1,8.657386780E0,-1.273832703E1
4.187168417E0,-4.579859924E1,1.094939423E1,-1.459875488E1
4.207284417E0,-4.464147949E1,1.339922333E1,-1.635987854E1
4.227400417E0,-4.338179016E1,1.537825775E1,-1.848185730E1
4.247515417E0,-4.172955322E1,1.736115265E1,-1.953863525E1
4.267631417E0,-4.043757629E1,1.875471497E1,-2.122720337E1
4.287747417E0,-3.893565369E1,2.034078979E1,-2.272232056E1
4.307862417E0,-3.729295349E1,2.201020813E1,-2.384556580E1
4.327978417E0,-3.604132080E1,2.354847717E1,-2.463436890E1
4.348093417E0,-3.466227722E1,2.507286072E1,-2.473303223E1
4.368209417E0,-3.312164307E1,2.666864777E1,-2.526910400E1
4.388325417E0,-3.163018799E1,2.833105469E1,-2.528967285E1
4.408440417E0,-3.045149231E1,2.949028015E1,-2.592251587E1
4.428556417E0,-2.920082092E1,3.025203705E1,-2.643302917E1
4.448671417E0,-2.813468933E1,3.101189423E1,-2.646804810E1
4.468787417E0,-2.746105957E1,3.128141022E1,-2.692602539E1
4.488903417E0,-2.711315918E1,3.165142059E1,-2.675933838E1
4.509018417E0,-2.704481506E1,3.133267975E1,-2.691418457E1
4.529134417E0,-2.712719727E1,3.121730042E1,-2.734632874E1
4.549250417E0,-2.764045715E1,3.056925964E1,-2.754841614E1
4.569365417E0,-2.876829529E1,2.986349487E1,-2.775973511E1
4.589481417E0,-2.997850037E1,2.902071381E1,-2.738389587E1
4.609596417E0,-3.202471924E1,2.736854553E1,-2.651083374E1
4.629712417E0,-3.416772461E1,2.537915039E1,-2.512007141E1
4.649828417E0,-3.690286255E1,2.369101715E1,-2.327482605E1
4.669943417E0,-3.871014404E1,2.168129730E1,-2.168533325E1
4.690059417E0,-4.090202332E1,1.970867157E1,-1.984309387E1
4.710175417E0,-4.275659180E1,1.740230560E1,-1.808163452E1
4.730290417E0,-4.418495178E1,1.508773804E1,-1.670590210E1
4.750406417E0,-4.551557922E1,1.217871094E1,-1.494567871E1
4.770521417E0,-4.695635986E1,9.398529053E0,-1.327511597E1
4.790637417E0,-4.773948669E1,6.378448486E0,-1.200114441E1
4.810753417E0,-4.797920227E1,3.351699829E0,-1.059054565E1
4.830868417E0,-4.858604431E1,4.821701050E-1,-9.548721313E0
4.850984417E0,-4.878312683E1,-1.877548218E0,-8.417053223E0
4.871100417E0,-4.870573425E1,-4.047771454E0,-7.887046814E0
4.891215417E0,-4.853138733E1,-6.163757324E0,-7.207366943E0
4.911331417E0,-4.838134766E1,-7.886394501E0,-7.061973572E0
4.931446417E0,-4.813410950E1,-9.371402740E0,-6.857971191E0
4.951562417E0,-4.788339233E1,-1.002447128E1,-6.469116211E0
4.971678417E0,-4.780778503E1,-1.063441086E1,-6.449615479E0
4.991793417E0,-4.771067810E1,-1.016750717E1,-6.717956543E0
5.011909417E0,-4.794102478E1,-9.975128174E0,-6.984489441E0
5.032024417E0,-4.808454895E1,-9.035884857E0,-7.244483948E0
5.052140417E0,-4.805052185E1,-8.215599060E0,-8.053733826E0
5.072256417E0,-4.817572021E1,-6.599571228E0,-9.055389404E0
5.092371417E0,-4.807749939E1,-4.422241211E0,-9.564659119E0
5.112487417E0,-4.848370361E1,-2.541492462E0,-9.849685669E0
5.132602417E0,-4.826310730E1,-8.367767334E-1,-1.089073181E1
5.152718417E0,-4.834963989E1,1.162757874E0,-1.212326050E1
5.172834958E0,-4.799229431E1,3.134490967E0,-1.223951721E1
5.192949958E0,-4.751701355E1,5.611740112E0,-1.328768921E1
5.213065958E0,-4.709571838E1,7.972656250E0,-1.412110901E1
5.233181958E0,-4.607963562E1,1.025225067E1,-1.553308105E1
5.253296958E0,-4.520521545E1,1.238832092E1,-1.689035034E1
5.273412958E0,-4.382052612E1,1.449639130E1,-1.880978394E1
5.293527958E0,-4.267300415E1,1.637345123E1,-2.022152710E1
5.313643958E0,-4.133406067E1,1.796755981E1,-2.152323914E1
5.333759958E0,-3.969816589E1,1.996250153E1,-2.283154297E1
5.353874958E0,-3.872302246E1,2.179628754E1,-2.362512207E1
5.373990958E0,-3.732388306E1,2.320899200E1,-2.403343201E1
5.394106958E0,-3.599287415E1,2.490823364E1,-2.435443115E1
5.414221958E0,-3.438999939E1,2.610951233E1,-2.500115967E1
5.434337958E0,-3.315393066E1,2.750247192E1,-2.547908020E1
5.454452958E0,-3.156433105E1,2.889482117E1,-2.628242493E1
5.474568958E0,-2.996659851E1,3.011977386E1,-2.614834595E1
5.494684958E0,-2.869076538E1,3.075872803E1,-2.689894104E1
5.514799958E0,-2.755549622E1,3.125772858E1,-2.732444763E1
5.534915958E0,-2.686376953E1,3.205465698E1,-2.746971130E1
5.555030958E0,-2.640844727E1,3.187940979E1,-2.765249634E1
5.575146958E0,-2.637599182E1,3.181684875E1,-2.712413025E1
5.595262958E0,-2.631608582E1,3.150422668E1,-2.782785034E1
5.615377958E0,-2.688583374E1,3.104616547E1,-2.815892029E1
5.635493958E0,-2.813252258E1,2.988545990E1,-2.795526123E1
5.655608958E0,-2.995968628E1,2.874012756E1,-2.735417175E1
5.675724958E0,-3.219348145E1,2.713430786E1,-2.657627869E1
5.695840958E0,-3.420384216E1,2.529508972E1,-2.528265381E1
5.715955958E0,-3.653968811E1,2.370185852E1,-2.391273499E1
5.736071958E0,-3.863018799E1,2.220793152E1,-2.206434631E1
5.756186958E0,-4.077334595E1,2.053403473E1,-2.040899658E1
5.776302958E0,-4.223699951E1,1.850887299E1,-1.874940491E1
5.796418958E0,-4.395384216E1,1.636444092E1,-1.712988281E1
5.816533958E0,-4.531834412E1,1.369313049E1,-1.573898315E1
5.836649958E0,-4.655085754E1,1.082821655E1,-1.442431641E1
5.856765958E0,-4.758422852E1,8.270614624E0,-1.331394958E1
5.876880958E0,-4.823664856E1,5.388206482E0,-1.226350403E1
5.896996958E0,-4.855332947E1,2.774131775E0,-1.122512817E1
5.917111958E0,-4.860108948E1,3.574371338E-1,-1.053314209E1
5.937227958E0,-4.885075378E1,-2.027404785E0,-9.711479187E0
5.957343958E0,-4.886172485E1,-3.856819153E0,-9.360122681E0
5.977458958E0,-4.884402466E1,-5.159915924E0,-9.149986267E0
5.997574958E0,-4.863574219E1,-6.392688751E0,-8.452919006E0
6.017689958E0,-4.870463562E1,-6.940158844E0,-7.651298523E0
6.037805958E0,-4.864517212E1,-7.446071625E0,-7.559379578E0
6.057921958E0,-4.847802734E1,-7.375202179E0,-7.226455688E0
6.078036958E0,-4.868646240E1,-6.966941833E0,-7.640197754E0
6.098152958E0,-4.885493469E1,-6.213928223E0,-8.322036743E0
6.118267958E0,-4.925010681E1,-4.849689484E0,-9.134590149E0
6.138383958E0,-4.887580872E1,-3.256618500E0,-1.038420105E1
6.158499542E0,-4.880479431E1,-1.381912231E0,-1.169171143E1
6.178614542E0,-4.879808044E1,2.872848511E-1,-1.232595825E1
6.198730542E0,-4.832084656E1,1.870796204E0,-1.297001648E1
6.218846542E0,-4.792633057E1,3.560035706E0,-1.382727051E1
6.238961542E0,-4.777024841E1,5.489585876E0,-1.465917969E1
6.259077542E0,-4.727566528E1,7.741714478E0,-1.561531067E1
6.279192542E0,-4.623712158E1,9.796798706E0,-1.683151245E1
6.299308542E0,-4.484016418E1,1.211156464E1,-1.824006653E1
6.319424542E0,-4.364669800E1,1.422182465E1,-1.990330505E1
6.339539542E0,-4.224435425E1,1.622862244E1,-2.167895508E1
6.359655542E0,-4.090332031E1,1.811798859E1,-2.293428040E1
6.379770542E0,-3.967359924E1,1.985227966E1,-2.359429932E1
6.399886542E0,-3.841607666E1,2.133223724E1,-2.427616882E1
6.420002542E0,-3.735589600E1,2.292990112E1,-2.457698059E1
6.440117542E0,-3.620318604E1,2.430905151E1,-2.468019104E1
6.460233542E0,-3.513905334E1,2.600294495E1,-2.456953430E1
6.480348542E0,-3.372547913E1,2.744464874E1,-2.543028259E1
6.500464542E0,-3.249012756E1,2.862754822E1,-2.545478821E1
6.520580542E0,-3.120314026E1,2.971182251E1,-2.568991089E1
6.540695542E0,-2.985693359E1,3.066364288E1,-2.581222534E1
6.560811542E0,-2.907966614E1,3.142762756E1,-2.634327698E1
6.580926542E0,-2.825918579E1,3.180968475E1,-2.702441406E1
6.601042542E0,-2.788502502E1,3.177645111E1,-2.730979919E1
6.621158542E0,-2.736805725E1,3.182135773E1,-2.793901062E1
6.641273542E0,-2.775883484E1,3.127052307E1,-2.846540833E1
6.661389542E0,-2.826734924E1,3.037445068E1,-2.805055237E1
6.681504542E0,-2.934188843E1,2.983386230E1,-2.795291138E1
6.701620542E0,-3.097615051E1,2.839698029E1,-2.767015076E1
6.721736542E0,-3.319821167E1,2.731459045E1,-2.707003784E1
6.741851542E0,-3.544122314E1,2.535243225E1,-2.564727783E1
6.761967542E0,-3.792858887E1,2.361286926E1,-2.376303101E1
6.782082542E0,-4.003982544E1,2.151419830E1,-2.162059021E1
6.802198542E0,-4.218595886E1,1.950431824E1,-1.987753296E1
6.822314542E0,-4.410449219E1,1.694625092E1,-1.768620300E1
6.842429542E0,-4.570964050E1,1.455158997E1,-1.588400269E1
6.862545542E0,-4.709407043E1,1.202702332E1,-1.365232849E1
